Frame,Sub Frame,GM,SL
1,0,-0.0163269,0.0455093
1,1,-0.0161743,0.0374222
1,2,-0.0104523,0.0219727
1,3,-0.00614166,-0.00953674
1,4,-0.00408173,-0.04776
1,5,-0.00293732,-0.0718689
1,6,-0.00400543,-0.0754547
1,7,0.0108719,-0.0754547
1,8,0.028038,-0.0579834
1,9,0.0289154,-0.0398254
2,0,0.0212479,-0.0534058
2,1,0.0189972,-0.0650406
2,2,0.0240326,-0.0588989
2,3,0.0304794,-0.0529099
2,4,0.0338745,-0.0415421
2,5,0.0311279,-0.0342178
2,6,0.0237274,-0.0518036
2,7,0.0177765,-0.0800705
2,8,0.0205231,-0.09655
2,9,0.0136948,-0.0976181
3,0,-0.00297546,-0.0821304
3,1,-0.00709534,-0.0439072
3,2,-0.00156403,-0.0128555
3,3,0.00289917,0.00343323
3,4,0.00175476,0.012207
3,5,-0.00144958,0.0209427
3,6,-0.0117493,0.0370789
3,7,0.00297546,0.0389862
3,8,0.024147,0.0307846
3,9,0.0256348,0.0255585
4,0,0.0162506,0.0285339
4,1,0.00713348,0.0393295
4,2,-0.000953674,0.0481796
4,3,-0.00461578,0.0461197
4,4,-0.00541687,0.0564957
4,5,-0.0056839,0.0831223
4,6,-0.0094986,0.093689
4,7,-0.0130081,0.0776291
4,8,-0.0183487,0.0593948
4,9,-0.0342941,0.0588608
5,0,-0.0461197,0.0576782
5,1,-0.0400543,0.0529861
5,2,-0.029068,0.0408173
5,3,-0.0216675,0.0171661
5,4,-0.0222778,0.000152588
5,5,-0.0250626,0.00324249
5,6,-0.0327682,0.0153732
5,7,-0.0195312,0.00461578
5,8,0.000152588,-0.0497055
5,9,0.00350952,-0.103035
6,0,0.00289917,-0.0916672
6,1,0.00862122,-0.0511551
6,2,0.0150299,-0.0391769
6,3,0.0168991,-0.0452805
6,4,0.022316,-0.0311661
6,5,0.0305939,0.00263214
6,6,0.0358582,0.0241089
6,7,0.041275,0.0225067
6,8,0.0478363,0.00564575
6,9,0.0407028,-0.0225449
7,0,0.0259018,-0.0436783
7,1,0.0188446,-0.0371933
7,2,0.0187302,-0.0289917
7,3,0.0157928,-0.0483322
7,4,0.0120544,-0.0702667
7,5,0.00778198,-0.0630951
7,6,-0.0030899,-0.0254059
7,7,0.00621796,-0.00713348
7,8,0.0310898,-0.0169754
7,9,0.0445557,-0.00595093
8,0,0.0421143,0.0230026
8,1,0.032692,0.0186157
8,2,0.0214767,-0.014267
8,3,0.00934601,-0.0399017
8,4,-0.00236511,-0.042572
8,5,-0.00919342,-0.0303268
8,6,-0.0130844,-0.00583649
8,7,-0.0193024,0.0304794
8,8,-0.0289917,0.0567627
8,9,-0.04879,0.050087
9,0,-0.0702667,0.00862122
9,1,-0.0748444,-0.0270081
9,2,-0.0591278,-0.0442123
9,3,-0.0432205,-0.0364685
9,4,-0.0326157,-0.00526428
9,5,-0.0268173,0.0201797
9,6,-0.0333023,0.0301743
9,7,-0.024147,0.0288773
9,8,0.00144958,0.0211334
9,9,0.0136566,0.0139618
10,0,0.0106812,0.00717163
10,1,0.00812531,0.0056839
10,2,0.00789642,0.0109482
10,3,0.0111389,0.0101471
10,4,0.0163651,0.0109482
10,5,0.0179672,0.0238419
10,6,0.0144958,0.0456619
10,7,0.00366211,0.0679398
10,8,-0.0075531,0.092392
10,9,-0.0272369,0.111122
11,0,-0.0563812,0.0935364
11,1,-0.0698471,0.0852966
11,2,-0.0667572,0.0989914
11,3,-0.0537491,0.0881195
11,4,-0.0434113,0.0481415
11,5,-0.0341415,0.0094223
11,6,-0.0311661,-0.0219345
11,7,-0.0234222,-0.0705338
11,8,0.00297546,-0.107193
11,9,0.0204086,-0.0916672
12,0,0.0178146,-0.0681305
12,1,0.0135803,-0.0740051
12,2,0.0191879,-0.0902176
12,3,0.0256729,-0.11631
12,4,0.0256348,-0.152054
12,5,0.0310898,-0.160561
12,6,0.0442886,-0.11734
12,7,0.0556183,-0.0527191
12,8,0.05867,0.00766754
12,9,0.0527191,0.0477219
13,0,0.0489044,0.0402069
13,1,0.0601959,0.017395
13,2,0.079422,0.0240707
13,3,0.083313,0.0375748
13,4,0.0668335,0.0338364
13,5,0.0389099,0.0219345
13,6,0.0112915,0.0243378
13,7,0.0056839,0.031662
13,8,0.0266266,0.0228119
13,9,0.0332642,0.0170517
14,0,0.0230026,0.0214767
14,1,0.0109863,0.0278473
14,2,7.62939e-05,0.0341797
14,3,-0.0115967,0.034523
14,4,-0.0220108,0.030899
14,5,-0.0337982,0.0323105
14,6,-0.043335,0.0402832
14,7,-0.0480652,0.0456238
14,8,-0.051918,0.0383759
14,9,-0.0633621,0.019722
15,0,-0.0793076,-0.0194168
15,1,-0.0746536,-0.0232697
15,2,-0.0517654,0.00801086
15,3,-0.0344086,-0.00450134
15,4,-0.0278091,-0.0473022
15,5,-0.0267029,-0.0497818
15,6,-0.0295258,-0.00720978
15,7,-0.0271988,0.0387573
15,8,-0.00801086,0.0535583
15,9,-0.00812531,0.0536728
16,0,-0.0226212,0.0414658
16,1,-0.0278854,0.0186157
16,2,-0.0144958,-0.00408173
16,3,0.00370026,-0.0242615
16,4,0.0115585,-0.039444
16,5,0.00617981,-0.0399017
16,6,0.00652313,-0.0308609
16,7,0.0194931,-0.0314331
16,8,0.0371552,-0.0408173
16,9,0.0405884,-0.044136
17,0,0.0171661,-0.0529861
17,1,-0.00453949,-0.0660324
17,2,-0.00465393,-0.0696945
17,3,0.00816345,-0.0753403
17,4,0.0138855,-0.0646591
17,5,0.0136566,-0.0401306
17,6,-0.00148773,-0.03582
17,7,-0.017128,-0.047226
17,8,7.62939e-05,-0.0808716
17,9,0.0189972,-0.127373
18,0,0.0189972,-0.165024
18,1,0.0106049,-0.188942
18,2,0.0088501,-0.219383
18,3,0.00793457,-0.229378
18,4,0.0136566,-0.196075
18,5,0.0303268,-0.126228
18,6,0.0583267,-0.0293732
18,7,0.0869751,0.0787354
18,8,0.102005,0.140533
18,9,0.0881195,0.146141
19,0,0.0490189,0.106392
19,1,0.033493,0.0658798
19,2,0.0497055,0.0640106
19,3,0.066185,0.0785446
19,4,0.0666809,0.0863266
19,5,0.0540924,0.0811005
19,6,0.0369263,0.0730515
19,7,0.0228882,0.0716019
19,8,0.0339127,0.0551987
19,9,0.0350571,0.0481033
20,0,0.0094986,0.0627136
20,1,-0.018959,0.0805283
20,2,-0.0391388,0.0762939
20,3,-0.0519943,0.0514984
20,4,-0.0601959,0.0318527
20,5,-0.0693893,0.0382614
20,6,-0.0791931,0.0576019
20,7,-0.0896072,0.0670242
20,8,-0.102539,0.0643158
20,9,-0.120697,0.0624466
21,0,-0.147209,0.0463486
21,1,-0.159607,0.0354004
21,2,-0.143242,0.0445175
21,3,-0.115738,0.0460815
21,4,-0.0965118,0.0421524
21,5,-0.0776291,0.0481033
21,6,-0.0638199,0.0731659
21,7,-0.0550842,0.124207
21,8,-0.0166321,0.159874
21,9,0.0200272,0.160522
22,0,0.0348663,0.140572
22,1,0.0383759,0.115242
22,2,0.0304031,0.0838852
22,3,0.0191498,0.0291824
22,4,0.0208282,-0.0542068
22,5,0.0344086,-0.151405
22,6,0.0553131,-0.242386
22,7,0.091095,-0.283241
22,8,0.130005,-0.250282
22,9,0.139694,-0.182076
23,0,0.106506,-0.144539
23,1,0.0624466,-0.127335
23,2,0.0367737,-0.0786209
23,3,0.0233078,-0.0309372
23,4,0.00873566,-0.0139618
23,5,-0.00629425,-0.0194931
23,6,-0.0191498,-0.0193405
23,7,-0.0287628,-0.00225067
23,8,-0.0106049,-0.00553131
23,9,0.0188446,-0.0235367
24,0,0.0276947,-0.0318909
24,1,0.0202942,-0.0284958
24,2,0.00995636,-0.0183105
24,3,0.00274658,-0.0185776
24,4,-0.00102997,-0.0311661
24,5,-0.00427246,-0.030632
24,6,-0.00705719,-0.0139618
24,7,-0.0106049,0.00831604
24,8,-0.0146484,0.0343704
24,9,-0.0224304,0.0553513
25,0,-0.0410461,0.0542831
25,1,-0.0564575,0.0428391
25,2,-0.0530624,0.0524902
25,3,-0.0385284,0.0710297
25,4,-0.0295639,0.0737
25,5,-0.0250244,0.0611877
25,6,-0.0212479,0.0477219
25,7,-0.0211334,0.0365448
25,8,0.00431061,0.0124741
25,9,0.0357819,0.000152588
26,0,0.0448608,0.00598907
26,1,0.0400162,0.0100708
26,2,0.0368118,0.00343323
26,3,0.0340652,0.00244141
26,4,0.0335693,0.000457764
26,5,0.0311661,-0.0110626
26,6,0.0251007,-0.0251389
26,7,0.017395,-0.0309753
26,8,0.010643,-0.0315475
26,9,-0.00217438,-0.0344467
27,0,-0.0357437,-0.0441742
27,1,-0.0648499,-0.0429153
27,2,-0.0597382,-0.0204468
27,3,-0.0380707,-0.01194
27,4,-0.0265121,-0.00656128
27,5,-0.0234222,0.0374603
27,6,-0.0204849,0.0903702
27,7,-0.0170898,0.112991
27,8,0.0112152,0.0993347
27,9,0.0514221,0.0743103
28,0,0.0660324,0.0624466
28,1,0.0628281,0.0585938
28,2,0.0635529,0.0351334
28,3,0.0666809,-0.0165939
28,4,0.0713348,-0.0966263
28,5,0.0757599,-0.174446
28,6,0.0763702,-0.200386
28,7,0.0670624,-0.16655
28,8,0.0489807,-0.130463
28,9,0.029335,-0.100288
29,0,-0.000648499,-0.0473404
29,1,-0.0302124,0.00495911
29,2,-0.0377655,0.0421906
29,3,-0.0310516,0.0705719
29,4,-0.0215912,0.0906754
29,5,-0.0108719,0.0865555
29,6,-0.00556946,0.0654984
29,7,-0.00865936,0.0541306
29,8,0.00709534,0.0321579
29,9,0.0378036,-0.00457764
30,0,0.0450134,-0.019989
30,1,0.0278854,-0.0154495
30,2,0.0112152,-0.00514984
30,3,-0.00038147,7.62939e-05
30,4,-0.00953674,-0.0094986
30,5,-0.0153351,-0.019722
30,6,-0.0216293,-0.0161362
30,7,-0.0313568,-0.00366211
30,8,-0.0404739,0.00812531
30,9,-0.047226,0.0157547
31,0,-0.0669479,0.0175095
31,1,-0.0913239,0.00724792
31,2,-0.0971985,0.0194168
31,3,-0.0830078,0.0396347
31,4,-0.0683975,0.0403976
31,5,-0.0592804,0.0291824
31,6,-0.0555801,0.0229645
31,7,-0.0605392,0.0297165
31,8,-0.0461197,0.0231171
31,9,-0.00862122,0.00125885
32,0,0.0104141,-0.010643
32,1,0.00770569,-0.0082016
32,2,0.00148773,0.000114441
32,3,0.00350952,0.00312805
32,4,0.0123215,-0.00621796
32,5,0.018692,-0.0119781
32,6,0.0183868,-0.00598907
32,7,0.011673,0.00724792
32,8,0.00411987,0.018692
32,9,-0.00335693,0.0272369
33,0,-0.0287628,0.0310135
33,1,-0.057106,0.0167847
33,2,-0.0615692,0.0201797
33,3,-0.0460434,0.0323486
33,4,-0.0292206,0.0204086
33,5,-0.0102997,-0.00465393
33,6,0.0119781,-0.0159073
33,7,0.0245285,-0.00736237
33,8,0.0445175,-0.0112534
33,9,0.087204,-0.0449753
34,0,0.121002,-0.0663757
34,1,0.124817,-0.0536728
34,2,0.110664,-0.0246429
34,3,0.0963974,-0.0173569
34,4,0.0821304,-0.0346756
34,5,0.0652313,-0.0500488
34,6,0.0494003,-0.0465012
34,7,0.038147,-0.0336456
34,8,0.0304794,-0.0239944
34,9,0.021286,-0.0176239
35,0,0.000648499,-0.0161362
35,1,-0.0286484,-0.0367355
35,2,-0.0364685,-0.0220871
35,3,-0.0244904,0.0112152
35,4,-0.0127029,0.0206757
35,5,-0.0107193,0.0121307
35,6,-0.015564,0.00396729
35,7,-0.0296783,0.0103378
35,8,-0.0284576,0.0159454
35,9,0.0019455,0.00644684
36,0,0.0207901,0
36,1,0.0168991,0.00198364
36,2,0.00629425,0.00392914
36,3,0.000457764,0.00652313
36,4,-0.000724792,-0.00179291
36,5,-0.00434875,-0.0101852
36,6,-0.00701904,-0.00270844
36,7,-0.0094223,0.0105667
36,8,-0.0115585,0.0196075
36,9,-0.0146103,0.0244141
37,0,-0.025177,0.019722
37,1,-0.0479889,-0.0114822
37,2,-0.0585556,-0.017395
37,3,-0.0489807,0.0140381
37,4,-0.0335312,0.0348282
37,5,-0.0281906,0.0304413
37,6,-0.0240326,0.0258636
37,7,-0.0293732,0.0353241
37,8,-0.0234222,0.0390244
37,9,0.00640869,0.0182343
38,0,0.0224304,0.000305176
38,1,0.0151443,0.00324249
38,2,0.0050354,0.0118256
38,3,0.00236511,0.0142288
38,4,0.0056076,0.00579834
38,5,0.00720978,-0.0102615
38,6,0.00663757,-0.0198364
38,7,0.00732422,-0.0102615
38,8,0.016098,0.00286102
38,9,0.0290298,0.00595093
39,0,0.0252151,0.00530243
39,1,0.00282288,-0.0193405
39,2,-0.00366211,-0.0292206
39,3,0.0134659,-0.0135422
39,4,0.0211334,0.00152588
39,5,0.0082016,0.000724792
39,6,-0.00480652,-0.0112152
39,7,-0.0178146,-0.0139999
39,8,-0.0191498,-0.00751495
39,9,0.0141907,-0.0234604
40,0,0.0432587,-0.042305
40,1,0.0415039,-0.0415421
40,2,0.0293732,-0.0343323
40,3,0.0224686,-0.0316238
40,4,0.0180054,-0.0423813
40,5,0.0104904,-0.0527954
40,6,0.000915527,-0.0484848
40,7,-0.00679016,-0.0386047
40,8,-0.00980377,-0.0287247
40,9,-0.0111771,-0.017128
41,0,-0.0172043,-0.00862122
41,1,-0.0373077,-0.0161362
41,2,-0.0503159,-0.017662
41,3,-0.0445175,0.00278473
41,4,-0.0310135,0.0145721
41,5,-0.0207138,0.0140381
41,6,-0.0149918,0.0175095
41,7,-0.0241089,0.0300217
41,8,-0.0256729,0.0337982
41,9,0.00839233,0.0100708
42,0,0.0363541,-0.0121307
42,1,0.0355148,-0.0133514
42,2,0.0239182,-0.00480652
42,3,0.0174713,0.00297546
42,4,0.015831,-0.000457764
42,5,0.0165939,-0.0154495
42,6,0.0179291,-0.0231171
42,7,0.0141144,-0.0169754
42,8,0.00907898,-0.00427246
42,9,0.00652313,0.0062561
43,0,-0.00572205,0.0105286
43,1,-0.0379944,-0.00518799
43,2,-0.0608063,-0.00297546
43,3,-0.0540543,0.0192642
43,4,-0.0387955,0.0268936
43,5,-0.0294495,0.0226974
43,6,-0.0209045,0.0179291
43,7,-0.0166702,0.0255966
43,8,-0.0195312,0.0421524
43,9,0.00972748,0.0324249
44,0,0.0410843,0.0209427
44,1,0.0355148,0.033226
44,2,0.0160217,0.0467682
44,3,0.00740051,0.0468826
44,4,0.00408173,0.0303268
44,5,0.00572205,0.0101089
44,6,0.0144958,0.00553131
44,7,0.0233841,0.0137329
44,8,0.0313187,0.0215149
44,9,0.0428009,0.0251389
45,0,0.0471497,0.0223923
45,1,0.0337219,0.000343323
45,2,0.0239944,-0.0205612
45,3,0.0315857,-0.00686646
45,4,0.0466919,0.00965118
45,5,0.0430298,0.00926971
45,6,0.0230408,0.000495911
45,7,0.00358582,0.00141144
45,8,-0.00843048,0.0109482
45,9,0.0117111,0.00274658
46,0,0.0295639,-0.00926971
46,1,0.0191116,-0.00801086
46,2,0.00228882,-0.00427246
46,3,-0.00911713,-0.00652313
46,4,-0.0171661,-0.0117874
46,5,-0.0207901,-0.0268173
46,6,-0.0226974,-0.031662
46,7,-0.0237656,-0.0220108
46,8,-0.0234985,-0.0133896
46,9,-0.0312805,-0.0082016
47,0,-0.0496674,0.0109482
47,1,-0.0754547,0.0180054
47,2,-0.0803757,0.00576019
47,3,-0.0547409,0.0204849
47,4,-0.0239182,0.0399017
47,5,-0.00766754,0.0368118
47,6,-0.0062561,0.0228119
47,7,-0.0150681,0.0194168
47,8,-0.0300598,0.0289917
47,9,-0.0075531,0.00930786
48,0,0.0259781,-0.0234985
48,1,0.0317383,-0.0355911
48,2,0.0210571,-0.0335693
48,3,0.0162125,-0.0327682
48,4,0.02285,-0.040741
48,5,0.0339508,-0.0579071
48,6,0.0391006,-0.0603104
48,7,0.0411224,-0.0457001
48,8,0.0395584,-0.0297546
48,9,0.0402069,-0.0246048
49,0,0.0301743,-0.0197601
49,1,-0.00682831,-0.0259018
49,2,-0.0393295,-0.0455856
49,3,-0.0397491,-0.0268936
49,4,-0.0147247,0.00614166
49,5,0.00556946,0.0128555
49,6,0.0109482,0.00328064
49,7,0.00141144,0.000572205
49,8,-0.0201797,0.0179291
49,9,-0.0110245,0.0200653
50,0,0.0162125,0.00282288
50,1,0.02388,-0.00602722
50,2,0.014267,-0.00335693
50,3,0.00701904,0.0025177
50,4,0.00598907,0.00228882
50,5,0.00843048,-0.00602722
50,6,0.00850677,-0.0107574
50,7,0.00358582,-0.00270844
50,8,-0.00293732,0.0150681
50,9,-0.00648499,0.0300217
51,0,-0.013237,0.0393677
51,1,-0.0375748,0.0373459
51,2,-0.0689316,0.0242615
51,3,-0.0733948,0.0720978
51,4,-0.0541306,0.130272
51,5,-0.0379181,0.127831
51,6,-0.0291443,0.0911713
51,7,-0.0237274,0.0666046
51,8,-0.0247574,0.060463
51,9,-0.00236511,0.0477219
52,0,0.0360489,0.02285
52,1,0.050621,0.00411987
52,2,0.0421524,-0.00278473
52,3,0.0346756,-0.0114822
52,4,0.0317001,-0.0247574
52,5,0.0318146,-0.0442123
52,6,0.0299454,-0.0540161
52,7,0.0240326,-0.0439453
52,8,0.0176239,-0.0320435
52,9,0.0111008,-0.0267792
53,0,0.00736237,-0.0211334
53,1,-0.00827789,-0.0232315
53,2,-0.0317764,-0.0236893
53,3,-0.0399399,-0.00476837
53,4,-0.0296783,0.0114822
53,5,-0.0178909,0.0088501
53,6,-0.0100708,0.00202179
53,7,-0.0101471,0.00354767
53,8,-0.0143433,0.0134277
53,9,0.0100327,0.0114441
54,0,0.0526047,0.00133514
54,1,0.0649643,-0.00370026
54,2,0.0526428,-0.000114441
54,3,0.0422287,0.00946045
54,4,0.0404739,0.0187302
54,5,0.0437927,0.0177002
54,6,0.0388718,0.0135803
54,7,0.0208282,0.018158
54,8,-0.0038147,0.0230408
54,9,-0.0102615,0.0204849
55,0,0.000801086,0.0147247
55,1,-0.00591278,0.0116348
55,2,-0.0344849,0.00522614
55,3,-0.043869,0.00652313
55,4,-0.0265503,0.0112915
55,5,-0.00701904,0.0106812
55,6,-0.00141144,0.00556946
55,7,-0.00133514,-0.00297546
55,8,-0.00675201,0.00152588
55,9,0.00125885,0.0148392
56,0,0.0276184,0.0159836
56,1,0.0374603,0.00354767
56,2,0.0286484,-0.0111771
56,3,0.0176239,-0.0168991
56,4,0.0112915,-0.0218964
56,5,0.0101089,-0.0421906
56,6,0.00404358,-0.063324
56,7,-0.00461578,-0.0683212
56,8,-0.0104141,-0.0627518
56,9,-0.0125122,-0.0548172
57,0,-0.0140762,-0.043869
57,1,-0.0276566,-0.0389099
57,2,-0.0527573,-0.0442505
57,3,-0.059433,-0.0438309
57,4,-0.0452805,-0.0264359
57,5,-0.0304031,-0.0133896
57,6,-0.026474,-0.0113678
57,7,-0.0251007,-0.0110245
57,8,-0.0340652,-0.000572205
57,9,-0.0252533,0.00328064
58,0,0.00915527,-0.00640869
58,1,0.026474,-0.0133133
58,2,0.0234222,-0.0114059
58,3,0.0164795,-0.00572205
58,4,0.0114822,-0.00087738
58,5,0.0113678,-0.0075531
58,6,0.0154877,-0.0124741
58,7,0.0159836,-0.00144958
58,8,0.0115204,0.0201035
58,9,0.0044632,0.0443268
59,0,0.00297546,0.0540924
59,1,-0.00659943,0.056839
59,2,-0.0351334,0.0674438
59,3,-0.0538635,0.0806046
59,4,-0.0440979,0.0910187
59,5,-0.0231171,0.0835419
59,6,-0.0105667,0.0634003
59,7,-0.0069809,0.0470352
59,8,-0.0137711,0.0475693
59,9,-0.00679016,0.0494003
60,0,0.0264359,0.0271225
60,1,0.0473022,0.000495911
60,2,0.0408554,-0.0094223
60,3,0.030365,-0.00938416
60,4,0.0265503,-0.0135422
60,5,0.0257111,-0.030098
60,6,0.0242615,-0.0430679
60,7,0.0195694,-0.0400543
60,8,0.0161362,-0.0338364
60,9,0.0128555,-0.029068
61,0,0.00843048,-0.0259399
61,1,-0.00427246,-0.0211716
61,2,-0.027504,-0.0233459
61,3,-0.0403214,-0.0196838
61,4,-0.0305557,-0.00663757
61,5,-0.0135422,-0.00415802
61,6,-0.00400543,-0.00713348
61,7,-0.00232697,-0.00801086
61,8,-0.0102615,0.000724792
61,9,-0.00919342,0.0124359
62,0,0.0182343,0.00629425
62,1,0.0361252,-0.00617981
62,2,0.03479,-0.0113297
62,3,0.027504,-0.0102615
62,4,0.0217819,-0.0104904
62,5,0.0212097,-0.0178146
62,6,0.0231934,-0.0306702
62,7,0.0230408,-0.0318527
62,8,0.0175476,-0.0177383
62,9,0.010643,-0.00171661
63,0,0.00511169,0.0109482
63,1,-0.00835419,0.0294876
63,2,-0.040741,0.052948
63,3,-0.0587463,0.071106
63,4,-0.0510788,0.08358
63,5,-0.0358582,0.0867081
63,6,-0.0241852,0.0717926
63,7,-0.0165176,0.0525284
63,8,-0.0177383,0.0442886
63,9,-0.0168991,0.0469589
64,0,0.0133896,0.0333023
64,1,0.03685,0.0151443
64,2,0.0336075,0.00965118
64,3,0.0220108,0.0295639
64,4,0.0162506,0.0439072
64,5,0.0181961,0.0271606
64,6,0.0181961,-0.00579834
64,7,0.0149536,-0.0207901
64,8,0.011673,-0.0188065
64,9,0.00930786,-0.0170135
65,0,0.00640869,-0.0192642
65,1,-0.000953674,-0.0191879
65,2,-0.0206757,-0.0189209
65,3,-0.0331879,-0.0146484
65,4,-0.0268936,-0.00621796
65,5,-0.0173187,-0.00419617
65,6,-0.0112915,-0.0112915
65,7,-0.00865936,-0.0176239
65,8,-0.0123215,-0.0125504
65,9,-0.0178146,0.000114441
66,0,0.00492096,-0.00587463
66,1,0.029068,-0.0183487
66,2,0.0312424,-0.0194168
66,3,0.0228882,-0.0188828
66,4,0.0174332,-0.021553
66,5,0.0130463,-0.0307846
66,6,0.0144196,-0.0437546
66,7,0.0147247,-0.0401306
66,8,0.01091,-0.00946045
66,9,0.00621796,0.0170898
67,0,0.00362396,0.0231552
67,1,-0.00232697,0.0193405
67,2,-0.0297546,0.0144577
67,3,-0.0518417,0.019989
67,4,-0.0476837,0.0297165
67,5,-0.0322342,0.0277328
67,6,-0.019455,0.0165558
67,7,-0.0156021,0.00988007
67,8,-0.018158,0.0108337
67,9,-0.0217819,0.0188828
68,0,0.00209808,0.0127029
68,1,0.032692,-0.00141144
68,2,0.0333405,-0.0056839
68,3,0.022583,0.00106812
68,4,0.0162506,0.0056839
68,5,0.014534,0.00282288
68,6,0.0147629,-0.0140381
68,7,0.0141907,-0.0246048
68,8,0.0106812,-0.0213242
68,9,0.00648499,-0.0161362
69,0,0.00198364,-0.00835419
69,1,-0.00537872,0.0107193
69,2,-0.0250626,0.0257111
69,3,-0.0363159,0.0278091
69,4,-0.027504,0.0323868
69,5,-0.0104523,0.0358963
69,6,-0.000305176,0.0337982
69,7,0.000343323,0.0278091
69,8,-0.00289917,0.0255203
69,9,-0.0107574,0.0335312
70,0,0.00938416,0.0298691
70,1,0.0370407,0.0170898
70,2,0.0423813,0.0115585
70,3,0.0312805,0.01194
70,4,0.0194931,0.0108719
70,5,0.0139999,0.0019455
70,6,0.0152969,-0.0161743
70,7,0.0190735,-0.0268173
70,8,0.0191498,-0.0231934
70,9,0.0130081,-0.014534
71,0,0.00751495,-0.00846863
71,1,-0.000686646,-0.00144958
71,2,-0.0232315,0.0094986
71,3,-0.0455856,0.0157166
71,4,-0.046196,0.0149155
71,5,-0.0310516,0.00846863
71,6,-0.0205612,0.00110626
71,7,-0.021553,-0.00572205
71,8,-0.0268555,-0.0123215
71,9,-0.0345612,-0.0082016
72,0,-0.0151825,-0.0133514
72,1,0.014534,-0.0271606
72,2,0.0230789,-0.0352097
72,3,0.0189209,-0.0384903
72,4,0.0141144,-0.0395966
72,5,0.0126648,-0.0402832
72,6,0.0178909,-0.0463104
72,7,0.0248718,-0.0462723
72,8,0.0321198,-0.0336456
72,9,0.039444,-0.0199509
73,0,0.0437164,-0.00980377
73,1,0.0427246,0.000114441
73,2,0.0266266,0.00717163
73,3,0.00587463,0.00778198
73,4,7.62939e-05,0.0177002
73,5,0.00419617,0.0285339
73,6,0.00537872,0.0285721
73,7,0.00511169,0.0256729
73,8,-0.00144958,0.0403976
73,9,-0.0180435,0.0697708
74,0,-0.0107193,0.0696945
74,1,0.0110245,0.0467682
74,2,0.0146103,0.0300598
74,3,0.00110626,0.0215149
74,4,-0.00835419,0.0141907
74,5,-0.0112915,0.00488281
74,6,-0.00858307,-0.00904083
74,7,-0.00255585,-0.0172806
74,8,0.000228882,-0.0146103
74,9,-0.00114441,-0.00682831
75,0,-0.00534058,0.00175476
75,1,-0.0108337,0.00675201
75,2,-0.0320435,0.0120163
75,3,-0.0604248,0.00968933
75,4,-0.067482,0.0146103
75,5,-0.0519562,0.0221634
75,6,-0.0328827,0.0194168
75,7,-0.0207138,0.0120544
75,8,-0.0160217,0.0101471
75,9,-0.0234604,0.0214386
76,0,-0.0137711,0.0238037
76,1,0.0207901,0.00247955
76,2,0.032959,-0.0121307
76,3,0.0237656,-0.0120926
76,4,0.0133514,-0.00717163
76,5,0.0107574,-0.00831604
76,6,0.0146484,-0.0245667
76,7,0.0172424,-0.033493
76,8,0.015564,-0.0244522
76,9,0.0125885,-0.0122833
77,0,0.0111389,-0.0063324
77,1,0.0127029,-0.00782013
77,2,0.00530243,-0.00663757
77,3,-0.0130081,-0.00469208
77,4,-0.0231171,-0.0069046
77,5,-0.0182343,-0.00888824
77,6,-0.00869751,-0.0132751
77,7,-0.00385284,-0.0214767
77,8,-0.00274658,-0.030098
77,9,-0.0104904,-0.0288773
78,0,-0.000991821,-0.0304794
78,1,0.0273514,-0.0514221
78,2,0.0406265,-0.0642776
78,3,0.0333023,-0.0522995
78,4,0.0225449,-0.0447464
78,5,0.0157928,-0.0515366
78,6,0.0151825,-0.0643539
78,7,0.0208282,-0.0708389
78,8,0.0264359,-0.0621414
78,9,0.0250626,-0.0422668
79,0,0.0189209,-0.0203323
79,1,0.0102997,-0.00232697
79,2,-0.00808716,0.0139999
79,3,-0.0380325,0.0305939
79,4,-0.0468826,0.0463867
79,5,-0.0344467,0.0515747
79,6,-0.0218582,0.0460052
79,7,-0.0193405,0.0426102
79,8,-0.0218201,0.0413895
79,9,-0.0294495,0.0455856
80,0,-0.0284195,0.0444031
80,1,-0.000648499,0.0291443
80,2,0.0160599,0.0183868
80,3,0.0140762,0.0195694
80,4,0.00804901,0.0261307
80,5,0.00644684,0.0286865
80,6,0.0112152,0.0182343
80,7,0.0156403,0.00324249
80,8,0.0153351,-0.000152588
80,9,0.0122833,0.00583649
81,0,0.00953674,0.0127792
81,1,0.00854492,0.0165176
81,2,0.000495911,0.0214386
81,3,-0.0141144,0.0313187
81,4,-0.0168228,0.0379181
81,5,-0.00400543,0.0378799
81,6,0.00911713,0.0338364
81,7,0.0100708,0.0311661
81,8,0.0056839,0.0283813
81,9,-0.00728607,0.0339508
82,0,-0.0119781,0.0366211
82,1,0.0101471,0.0196457
82,2,0.0291824,0.00125885
82,3,0.0289917,-0.00324249
82,4,0.019989,-0.00286102
82,5,0.0138855,-0.00328064
82,6,0.0154877,-0.0126648
82,7,0.020256,-0.0269699
82,8,0.0195312,-0.0335312
82,9,0.0140762,-0.0291061
83,0,0.00659943,-0.0188446
83,1,3.8147e-05,-0.00705719
83,2,-0.014801,0.00102997
83,3,-0.0409317,0.00724792
83,4,-0.0533295,0.0144577
83,5,-0.0372314,0.0224686
83,6,-0.014534,0.0236893
83,7,-0.00377655,0.0193787
83,8,7.62939e-05,0.0131607
83,9,-0.000534058,0.0186157
84,0,-0.000572205,0.0338745
84,1,0.0230026,0.0248718
84,2,0.0396347,0.00362396
84,3,0.0350189,-0.00839233
84,4,0.0209045,-0.0114059
84,5,0.0105667,-0.0150681
84,6,0.00812531,-0.0289536
84,7,0.00831604,-0.0444794
84,8,0.00518799,-0.0474167
84,9,0.00125885,-0.041008
85,0,-0.00125885,-0.028801
85,1,-0.0031662,-0.0194931
85,2,-0.0100708,-0.015831
85,3,-0.029068,-0.0164795
85,4,-0.0409317,-0.0142288
85,5,-0.0373459,-0.00652313
85,6,-0.0273132,-0.0069046
85,7,-0.0207901,-0.0121307
85,8,-0.014534,-0.0146103
85,9,-0.0127411,-0.00450134
86,0,-0.0137711,0.0094223
86,1,0.0104523,-0.00205994
86,2,0.0353622,-0.0201035
86,3,0.0382233,-0.0282669
86,4,0.0285339,-0.0246811
86,5,0.0193024,-0.0201035
86,6,0.0177765,-0.0261307
86,7,0.0221252,-0.0382614
86,8,0.0257492,-0.0381088
86,9,0.0241852,-0.0256348
87,0,0.0196838,-0.0134277
87,1,0.0165176,-0.00564575
87,2,0.00801086,0.00537872
87,3,-0.0156403,0.0184631
87,4,-0.0315475,0.0281143
87,5,-0.0258255,0.0354385
87,6,-0.017395,0.0375366
87,7,-0.0146866,0.0327301
87,8,-0.015831,0.0273132
87,9,-0.0237274,0.0282288
88,0,-0.0325394,0.0343323
88,1,-0.0104523,0.0219345
88,2,0.0104904,0.00221252
88,3,0.00988007,-0.00579834
88,4,0.000801086,-0.00480652
88,5,-0.00278473,-0.00144958
88,6,-0.00171661,-0.00370026
88,7,0.0012207,-0.01091
88,8,0.00221252,-0.0134659
88,9,0.00370026,-0.00827789
89,0,0.00766754,-0.000572205
89,1,0.00865936,0.00675201
89,2,0.00469208,0.0135422
89,3,-0.0128555,0.0167084
89,4,-0.0275803,0.018692
89,5,-0.0234222,0.0249863
89,6,-0.0110626,0.0310135
89,7,-0.00656128,0.0328827
89,8,-0.00591278,0.0299835
89,9,-0.0101471,0.0328445
90,0,-0.0171661,0.0397491
90,1,-0.0018692,0.0310135
90,2,0.0173187,0.0169373
90,3,0.0179672,0.0143051
90,4,0.00804901,0.0160217
90,5,0.00156403,0.0142288
90,6,0.000572205,0.00530243
90,7,0.00717163,-0.00946045
90,8,0.0130844,-0.0146103
90,9,0.0113297,-0.0094986
91,0,0.00659943,-0.0031662
91,1,0.00396729,0.000495911
91,2,-0.00282288,0.00507355
91,3,-0.0235748,0.0111008
91,4,-0.0363922,0.0205994
91,5,-0.0313568,0.0318146
91,6,-0.0174713,0.0305939
91,7,-0.00694275,0.0222397
91,8,-0.0030899,0.0160599
91,9,-0.00442505,0.0159073
92,0,-0.0101089,0.0218582
92,1,0.00530243,0.0124359
92,2,0.0313568,-0.00423431
92,3,0.0374603,-0.00946045
92,4,0.031929,-0.00518799
92,5,0.031929,-0.00228882
92,6,0.0383377,-0.00652313
92,7,0.0402451,-0.0204849
92,8,0.0376892,-0.029335
92,9,0.0334549,-0.0269318
93,0,0.0310516,-0.0200272
93,1,0.0265884,-0.0157547
93,2,0.0153732,-0.0106812
93,3,-0.00465393,-0.000915527
93,4,-0.0233078,0.00614166
93,5,-0.0271606,0.00846863
93,6,-0.0235367,0.00534058
93,7,-0.0201035,0.00404358
93,8,-0.0138092,0.00400543
93,9,-0.0173187,0.00587463
94,0,-0.0261688,0.0136948
94,1,-0.0124359,0.0110626
94,2,0.00923157,-0.00175476
94,3,0.0153732,-0.0115585
94,4,0.00865936,-0.0163651
94,5,0.00358582,-0.0156784
94,6,0.00167847,-0.0164032
94,7,0.00400543,-0.0285339
94,8,0.00892639,-0.0402451
94,9,0.0102234,-0.0436401
95,0,0.00835419,-0.0405502
95,1,0.0056076,-0.0330734
95,2,0.000228882,-0.0216293
95,3,-0.0192642,-0.0063324
95,4,-0.0393677,0.00862122
95,5,-0.0381851,0.019989
95,6,-0.023613,0.0234604
95,7,-0.0114822,0.0198746
95,8,-0.00339508,0.0142288
95,9,-0.000801086,0.0121689
96,0,-0.0104523,0.0204086
96,1,-0.00404358,0.0197601
96,2,0.0183105,0.00427246
96,3,0.0271606,-0.00484467
96,4,0.0200653,-0.00541687
96,5,0.010643,-0.0019455
96,6,0.0056076,-0.00370026
96,7,0.00648499,-0.0157166
96,8,0.00701904,-0.0261307
96,9,0.00492096,-0.0264359
97,0,0.00289917,-0.0197983
97,1,0.0030899,-0.0117493
97,2,0.0025177,-0.00450134
97,3,-0.00858307,0.00595093
97,4,-0.0234985,0.0119781
97,5,-0.0260162,0.0101089
97,6,-0.0164032,0.00812531
97,7,-0.00728607,0.00946045
97,8,-0.00114441,0.0125122
97,9,-0.00183105,0.0196457
98,0,-0.0075531,0.0270462
98,1,0.001297,0.0210571
98,2,0.0228882,0.00286102
98,3,0.0342941,-0.00423431
98,4,0.0273514,-0.00221252
98,5,0.0198364,0.00106812
98,6,0.0143433,-0.00118256
98,7,0.016098,-0.0143814
98,8,0.0201035,-0.0252914
98,9,0.0195694,-0.021553
99,0,0.0131989,-0.0082016
99,1,0.00759125,0.00659943
99,2,-0.000114441,0.0187302
99,3,-0.0168228,0.0302887
99,4,-0.0400162,0.0395584
99,5,-0.0465393,0.042572
99,6,-0.0413132,0.0374985
99,7,-0.032959,0.0264359
99,8,-0.0263214,0.0131989
99,9,-0.0258255,0.00835419
100,0,-0.0310516,0.0188828
100,1,-0.0249481,0.0283051
100,2,0.00175476,0.0223541
100,3,0.0167084,0.0143051
100,4,0.0165176,0.010376
100,5,0.0130081,-0.00217438
100,6,0.0169754,-0.0244904
100,7,0.0261307,-0.048027
100,8,0.0337601,-0.0568008
100,9,0.0352097,-0.0474167
101,0,0.0319672,-0.037117
101,1,0.0283432,-0.0374222
101,2,0.022049,-0.0484848
101,3,0.00511169,-0.0463104
101,4,-0.0144577,-0.02491
101,5,-0.0222015,-0.00232697
101,6,-0.0189209,0.00736237
101,7,-0.0130081,0.0056839
101,8,-0.0113297,0.00610352
101,9,-0.010376,0.0115967
102,0,-0.0158691,0.0226974
102,1,-0.0111771,0.0297546
102,2,0.0104904,0.0232697
102,3,0.0239182,0.0206375
102,4,0.0276947,0.0217438
102,5,0.0314331,0.0133133
102,6,0.0328827,-0.000572205
102,7,0.0307846,-0.0164032
102,8,0.0278854,-0.0291061
102,9,0.0224686,-0.0267792
103,0,0.014534,-0.0094986
103,1,0.00770569,0.00999451
103,2,-0.00087738,0.0180817
103,3,-0.018959,0.0193787
103,4,-0.043869,0.0239182
103,5,-0.0517273,0.0285721
103,6,-0.0418854,0.02491
103,7,-0.0281525,0.0130844
103,8,-0.0184631,0.00476837
103,9,-0.0155258,0.00537872
104,0,-0.0202942,0.0160599
104,1,-0.0209808,0.0211334
104,2,0.000495911,0.0113678
104,3,0.0184631,0.00556946
104,4,0.0202179,0.0154114
104,5,0.0169373,0.0296783
104,6,0.0185394,0.034256
104,7,0.0205231,0.0198746
104,8,0.0202179,0.00415802
104,9,0.0163651,0.000610352
105,0,0.01297,0.00114441
105,1,0.00827789,-0.00507355
105,2,0.000686646,-0.0164795
105,3,-0.0106812,-0.0208664
105,4,-0.0256348,-0.00701904
105,5,-0.0305939,0.00171661
105,6,-0.0233841,-0.00747681
105,7,-0.0126266,-0.0240707
105,8,-0.00431061,-0.0340652
105,9,-0.0038147,-0.0307465
106,0,-0.0113678,-0.0130844
106,1,-0.012207,-0.0030899
106,2,0.00514984,-0.0116348
106,3,0.0218964,-0.0156403
106,4,0.0254059,-0.00835419
106,5,0.0233841,-0.00782013
106,6,0.0199509,-0.0124359
106,7,0.0188828,-0.0182724
106,8,0.0199127,-0.0213242
106,9,0.020256,-0.0129318
107,0,0.0172043,0.00217438
107,1,0.00991821,0.0108719
107,2,0.00228882,0.0124359
107,3,-0.0114059,0.0183487
107,4,-0.0362778,0.0287247
107,5,-0.0489044,0.0419617
107,6,-0.0416183,0.042038
107,7,-0.0271225,0.0275803
107,8,-0.0191116,0.00904083
107,9,-0.0151443,-0.0149918
108,0,-0.0183487,-0.0350189
108,1,-0.0187302,-0.0397873
108,2,0.00114441,-0.0392914
108,3,0.0196457,-0.0360107
108,4,0.0165939,-0.0352097
108,5,0.00919342,-0.0330353
108,6,0.00804901,-0.0201416
108,7,0.0123215,-0.00549316
108,8,0.0158691,0.000953674
108,9,0.0149918,0.00499725
109,0,0.0151825,0.00850677
109,1,0.0178909,0.00915527
109,2,0.0190353,0.00522614
109,3,0.0149918,0.00537872
109,4,-0.00087738,0.0146484
109,5,-0.0112534,0.022049
109,6,-0.00652313,0.0279236
109,7,0.00465393,0.0291443
109,8,0.00785828,0.0270462
109,9,0.0044632,0.0247955
110,0,-0.00717163,0.0289154
110,1,-0.0136566,0.0335312
110,2,0.00270844,0.0225449
110,3,0.0195694,0.00915527
110,4,0.0177765,0.00461578
110,5,0.00892639,0.00415802
110,6,0.00530243,0.00110626
110,7,0.00587463,-0.0030899
110,8,0.00751495,-0.00617981
110,9,0.00740051,-0.0135803
111,0,0.00312805,-0.0212479
111,1,-0.00217438,-0.0170517
111,2,-0.00785828,-0.00240326
111,3,-0.018425,0.0119781
111,4,-0.0392151,0.0209045
111,5,-0.0554657,0.0238037
111,6,-0.0507736,0.0207901
111,7,-0.0363922,0.020256
111,8,-0.02491,0.0179291
111,9,-0.0144196,0.00679016
112,0,-0.0107193,-0.00671387
112,1,-0.0088501,-0.0115585
112,2,0.0143051,-0.0254059
112,3,0.0375748,-0.0491714
112,4,0.0435638,-0.0642395
112,5,0.0385666,-0.0538254
112,6,0.0293732,-0.0253296
112,7,0.0232315,-0.0198364
112,8,0.0182343,-0.0381088
112,9,0.0150299,-0.0424957
113,0,0.0133514,-0.0242996
113,1,0.0121689,-0.00297546
113,2,0.0143051,0.00286102
113,3,0.0153732,0.00408173
113,4,0.00289917,0.0217056
113,5,-0.0104141,0.0419998
113,6,-0.0115585,0.0440598
113,7,-0.00335693,0.032692
113,8,0.00343323,0.0182724
113,9,0.00629425,0.00675201
114,0,-0.000343323,0.00602722
114,1,-0.0101089,0.0151825
114,2,-0.000305176,0.0134277
114,3,0.0174713,0.00850677
114,4,0.0168991,0.0114822
114,5,0.00743866,0.0184631
114,6,0.00240326,0.0211716
114,7,0.00156403,0.0180435
114,8,0.00461578,0.00507355
114,9,0.00675201,-0.00808716
115,0,0.00274658,-0.00839233
115,1,-0.00190735,0.000495911
115,2,-0.00419617,0.00587463
115,3,-0.00930786,0.0101089
115,4,-0.0282288,0.0197983
115,5,-0.0482559,0.0299072
115,6,-0.048027,0.0314331
115,7,-0.0355148,0.025177
115,8,-0.0247574,0.0188065
115,9,-0.0195694,0.0113297
116,0,-0.0168228,0.00770569
116,1,-0.0219345,0.0111389
116,2,-0.00850677,0.00591278
116,3,0.015831,-0.00984192
116,4,0.0246811,-0.0194168
116,5,0.018425,-0.0208282
116,6,0.0136566,-0.0199127
116,7,0.013237,-0.0244904
116,8,0.0149155,-0.037117
116,9,0.0137711,-0.0419998
117,0,0.0125122,-0.0359726
117,1,0.0125504,-0.0321579
117,2,0.0124359,-0.0304031
117,3,0.00858307,-0.0237274
117,4,-0.00671387,-0.0120163
117,5,-0.0228119,-0.00461578
117,6,-0.0252151,-0.000495911
117,7,-0.011673,-0.00148773
117,8,0.00164032,-0.00434875
117,9,0.00331879,-0.0062561
118,0,-0.00278473,-0.00217438
118,1,-0.0138855,0.0131226
118,2,-0.00190735,0.0227737
118,3,0.0222015,0.0159454
118,4,0.0329208,0.00457764
118,5,0.0294495,-0.000762939
118,6,0.021553,-0.00362396
118,7,0.0165939,-0.00873566
118,8,0.021019,-0.0212479
118,9,0.0276184,-0.0291061
119,0,0.0268936,-0.0257492
119,1,0.021019,-0.018692
119,2,0.0151062,-0.011673
119,3,0.00740051,-0.00579834
119,4,-0.0146484,0.000762939
119,5,-0.0398636,0.00518799
119,6,-0.0468063,0.0143051
119,7,-0.0336456,0.0196838
119,8,-0.0224686,0.0104141
119,9,-0.0201035,-0.00263214
120,0,-0.0195312,-0.00789642
120,1,-0.0234985,0.000839233
120,2,-0.0121689,0.00377655
120,3,0.0149155,-0.00713348
120,4,0.0281525,-0.0152206
120,5,0.0254059,-0.0180054
120,6,0.0179672,-0.0163651
120,7,0.0156403,-0.0166702
120,8,0.0172043,-0.0239944
120,9,0.0154114,-0.0305176
121,0,0.0108719,-0.0256729
121,1,0.00747681,-0.014267
121,2,0.00450134,-0.00511169
121,3,0.000915527,0.000419617
121,4,-0.0124359,0.00526428
121,5,-0.0284576,0.0100327
121,6,-0.0327301,0.0156784
121,7,-0.0256729,0.0203323
121,8,-0.0149918,0.0164795
121,9,-0.0101852,0.0112534
122,0,-0.0104904,0.0121307
122,1,-0.0159073,0.0219727
122,2,-0.00663757,0.0251007
122,3,0.0148773,0.0160599
122,4,0.0243759,0.00843048
122,5,0.0196075,0.00564575
122,6,0.0144577,0.00259399
122,7,0.0111008,-0.00164032
122,8,0.0117493,-0.0130463
122,9,0.0162888,-0.0252151
123,0,0.0172806,-0.0241852
123,1,0.0108337,-0.00629425
123,2,0.00289917,0.0159836
123,3,-0.00114441,0.026741
123,4,-0.0165558,0.0282669
123,5,-0.043869,0.0300598
123,6,-0.0526047,0.0325775
123,7,-0.0389481,0.0311661
123,8,-0.0230789,0.024147
123,9,-0.0180054,0.0147629
124,0,-0.0185394,0.0069809
124,1,-0.0205994,0.00907898
124,2,-0.0123978,0.00797272
124,3,0.0174332,-0.0094223
124,4,0.0354385,-0.0220108
124,5,0.0365067,-0.0180435
124,6,0.0322342,-0.00740051
124,7,0.0323868,-0.00583649
124,8,0.0324631,-0.0208282
124,9,0.0308609,-0.0356674
125,0,0.0273895,-0.0358963
125,1,0.022316,-0.0300598
125,2,0.0152969,-0.0260544
125,3,0.00728607,-0.0199127
125,4,-0.00778198,-0.0143433
125,5,-0.0317383,-0.0168991
125,6,-0.0383759,-0.00896454
125,7,-0.0273895,0.0019455
125,8,-0.0170135,0.00469208
125,9,-0.0152969,-3.8147e-05
126,0,-0.0160217,-0.00366211
126,1,-0.0226974,0.00663757
126,2,-0.018158,0.0140381
126,3,0.0113678,0.000991821
126,4,0.0293732,-0.0123978
126,5,0.0261307,-0.0131226
126,6,0.0177002,-0.0136185
126,7,0.0126266,-0.0130844
126,8,0.0127029,-0.0209427
126,9,0.0170135,-0.0318146
127,0,0.0168991,-0.0307846
127,1,0.0103378,-0.0190735
127,2,0.00602722,-0.00843048
127,3,0.00217438,7.62939e-05
127,4,-0.0125885,0.0075531
127,5,-0.0424194,0.00770569
127,6,-0.0550842,0.0137711
127,7,-0.0419998,0.0262451
127,8,-0.0229645,0.0283051
127,9,-0.0123596,0.0202179
128,0,-0.00717163,0.0139236
128,1,-0.0115967,0.0233459
128,2,-0.0109482,0.0290298
128,3,0.0198364,0.0109482
128,4,0.0432587,-0.00400543
128,5,0.0442886,-0.00762939
128,6,0.0360107,-0.00724792
128,7,0.0287247,-0.0116348
128,8,0.0257492,-0.0260544
128,9,0.0235367,-0.039444
129,0,0.0195694,-0.0401688
129,1,0.0121689,-0.0349045
129,2,0.00473022,-0.0297928
129,3,0.00102997,-0.025444
129,4,-0.00892639,-0.0153351
129,5,-0.0302887,-0.00957489
129,6,-0.0426865,-0.010643
129,7,-0.0376129,-0.00110626
129,8,-0.0229263,0.0102234
129,9,-0.0117493,0.0129318
130,0,-0.00713348,0.00747681
130,1,-0.0115967,0.0108337
130,2,-0.0105667,0.0211716
130,3,0.0170898,0.0128937
130,4,0.0366974,0.00286102
130,5,0.0339508,-0.00106812
130,6,0.0279999,-0.00324249
130,7,0.0229263,-0.0043869
130,8,0.0232315,-0.00926971
130,9,0.0256729,-0.0215912
131,0,0.0259781,-0.0260544
131,1,0.0200653,-0.0200272
131,2,0.011673,-0.0106049
131,3,0.00400543,-0.00270844
131,4,-0.0100327,0.00713348
131,5,-0.0416565,0.0200272
131,6,-0.0609207,0.0351334
131,7,-0.0542068,0.046463
131,8,-0.0369644,0.0430679
131,9,-0.0270081,0.032692
132,0,-0.0250244,0.0242233
132,1,-0.0279617,0.0215912
132,2,-0.0298309,0.0253296
132,3,-0.000762939,0.00850677
132,4,0.0278091,-0.0114441
132,5,0.030899,-0.0155258
132,6,0.0233459,-0.0120163
132,7,0.0167847,-0.0123215
132,8,0.0151825,-0.0209427
132,9,0.0143814,-0.0307465
133,0,0.0118637,-0.0292969
133,1,0.010376,-0.0225449
133,2,0.0100708,-0.017128
133,3,0.00831604,-0.0133514
133,4,0.00240326,-0.00747681
133,5,-0.0159073,-0.00549316
133,6,-0.0288773,-0.00259399
133,7,-0.0242233,0.00610352
133,8,-0.0151825,0.0165558
133,9,-0.00892639,0.019455
134,0,-0.0063324,0.0140381
134,1,-0.0111771,0.0162888
134,2,-0.0162506,0.0288391
134,3,0.00469208,0.0226593
134,4,0.0292587,0.00534058
134,5,0.0332642,-0.0044632
134,6,0.0266647,-0.00396729
134,7,0.0217819,-0.00419617
134,8,0.0198364,-0.00873566
134,9,0.0199509,-0.0202179
135,0,0.0194168,-0.0266647
135,1,0.0148392,-0.0223541
135,2,0.00869751,-0.0147629
135,3,0.00465393,-0.0104141
135,4,-0.00495911,-0.00377655
135,5,-0.0333405,-0.00679016
135,6,-0.0576782,-0.00484467
135,7,-0.056839,0.0108719
135,8,-0.0372696,0.0187683
135,9,-0.0202179,0.0120163
136,0,-0.015831,0.00267029
136,1,-0.0139236,0.00312805
136,2,-0.0187302,0.0130844
136,3,0.00476837,0.00480652
136,4,0.0345993,-0.0143433
136,5,0.0388718,-0.0183487
136,6,0.0308609,-0.0149536
136,7,0.0234222,-0.0126266
136,8,0.0226593,-0.017662
136,9,0.0229263,-0.0288391
137,0,0.0211716,-0.0321579
137,1,0.0165558,-0.0230026
137,2,0.0118637,-0.0137329
137,3,0.0101471,-0.0112915
137,4,0.00576019,-0.00953674
137,5,-0.01194,-0.00976562
137,6,-0.0307083,-0.00480652
137,7,-0.0305176,0.00408173
137,8,-0.0210953,0.00919342
137,9,-0.0114822,0.00946045
138,0,-0.00717163,0.00644684
138,1,-0.0123978,0.00930786
138,2,-0.0183868,0.0226974
138,3,0.00492096,0.0189972
138,4,0.0340652,0.000114441
138,5,0.0386429,-0.00694275
138,6,0.0310135,-0.0069046
138,7,0.0244522,-0.00499725
138,8,0.0177383,-0.00713348
138,9,0.0162888,-0.0207901
139,0,0.0167084,-0.030899
139,1,0.0131607,-0.0274658
139,2,0.00701904,-0.0183868
139,3,0.00102997,-0.0105286
139,4,-0.00602722,-0.00102997
139,5,-0.0310135,0.00366211
139,6,-0.0564194,0.00999451
139,7,-0.0555801,0.0246048
139,8,-0.0375366,0.0291443
139,9,-0.0217819,0.0263596
140,0,-0.0123215,0.0209808
140,1,-0.00862122,0.0181198
140,2,-0.0151443,0.0239944
140,3,0.00408173,0.0176239
140,4,0.0320435,0.000915527
140,5,0.0421524,-0.00530243
140,6,0.0319672,-0.000343323
140,7,0.0219727,0.00411987
140,8,0.0177765,-0.000572205
140,9,0.0173569,-0.0125122
141,0,0.0131607,-0.0171661
141,1,0.00572205,-0.013237
141,2,0.000686646,-0.00659943
141,3,0.00144958,-0.000267029
141,4,-0.000152588,0.00679016
141,5,-0.0171661,0.0101089
141,6,-0.0379944,0.0130844
141,7,-0.0399017,0.015564
141,8,-0.0299072,0.0181961
141,9,-0.0186539,0.0156021
142,0,-0.0122452,0.010643
142,1,-0.00782013,0.0125504
142,2,-0.0109863,0.0205994
142,3,0.0038147,0.0157166
142,4,0.0265503,-0.000724792
142,5,0.0328064,-0.00816345
142,6,0.0258255,-0.00694275
142,7,0.0172806,-0.00495911
142,8,0.0122452,-0.00682831
142,9,0.0139999,-0.0175095
143,0,0.0180817,-0.0247574
143,1,0.0187683,-0.020256
143,2,0.0149918,-0.00915527
143,3,0.00984192,-0.000801086
143,4,0.00514984,0.00400543
143,5,-0.0162125,0.00453949
143,6,-0.0437164,0.00587463
143,7,-0.0488281,0.0148773
143,8,-0.0363541,0.0220871
143,9,-0.0207138,0.0180817
144,0,-0.0127029,0.00713348
144,1,-0.0117493,0.00324249
144,2,-0.0193024,0.00873566
144,3,-0.00904083,0.00507355
144,4,0.0188828,-0.0104904
144,5,0.0311279,-0.0177383
144,6,0.0272751,-0.016098
144,7,0.019722,-0.0143814
144,8,0.0170898,-0.0156784
144,9,0.0157547,-0.0208282
145,0,0.0135803,-0.022316
145,1,0.0104141,-0.0165939
145,2,0.00957489,-0.00888824
145,3,0.0128555,-0.00507355
145,4,0.0162506,-0.00339508
145,5,0.00236511,0.000915527
145,6,-0.0173187,-0.000953674
145,7,-0.0257492,-7.62939e-05
145,8,-0.0200272,0.0075531
145,9,-0.010643,0.0119781
146,0,-0.00579834,0.00968933
146,1,-0.00587463,0.00362396
146,2,-0.0183868,0.0112534
146,3,-0.0132751,0.0131989
146,4,0.0149536,-0.00362396
146,5,0.0279617,-0.0143433
146,6,0.0203705,-0.014801
146,7,0.0120926,-0.0126648
146,8,0.00816345,-0.0111771
146,9,0.0107574,-0.0194168
147,0,0.0170898,-0.0291443
147,1,0.0185776,-0.0252533
147,2,0.0148392,-0.0141525
147,3,0.0114059,-0.00240326
147,4,0.00865936,0.00720978
147,5,-0.00801086,0.0157547
147,6,-0.0370026,0.0224304
147,7,-0.047493,0.028801
147,8,-0.0355148,0.0370407
147,9,-0.0208664,0.0349426
148,0,-0.013504,0.0247955
148,1,-0.00896454,0.019722
148,2,-0.0154877,0.0266647
148,3,-0.00717163,0.0243759
148,4,0.0242996,0.00305176
148,5,0.0403976,-0.0101089
148,6,0.0314713,-0.0105286
148,7,0.020256,-0.00709534
148,8,0.0145721,-0.00595093
148,9,0.0152588,-0.0126648
149,0,0.0141525,-0.0194168
149,1,0.0102615,-0.0188446
149,2,0.00751495,-0.0140762
149,3,0.00495911,-0.00640869
149,4,0.00217438,0.000839233
149,5,-0.00873566,0.00648499
149,6,-0.0296021,0.00232697
149,7,-0.0422668,0.00354767
149,8,-0.0360489,0.0135422
149,9,-0.0228119,0.0167084
150,0,-0.0169754,0.0157547
150,1,-0.0150299,0.0123596
150,2,-0.0186539,0.0164413
150,3,-0.011673,0.018692
150,4,0.0156784,0.00354767
150,5,0.0294876,-0.01091
150,6,0.0262833,-0.0146484
150,7,0.0194931,-0.0161362
150,8,0.0150681,-0.0157547
150,9,0.0131607,-0.0184631
151,0,0.0172806,-0.0242996
151,1,0.0215149,-0.0244522
151,2,0.0170135,-0.0162888
151,3,0.0087738,-0.00278473
151,4,0.00278473,0.0105667
151,5,-0.00968933,0.0184631
151,6,-0.0396729,0.0145721
151,7,-0.0549316,0.00656128
151,8,-0.0426865,0.0156021
151,9,-0.0230789,0.0293732
152,0,-0.0139999,0.0287247
152,1,-0.0121689,0.0159073
152,2,-0.0166321,0.0125504
152,3,-0.0143433,0.0143814
152,4,0.0154495,-0.000495911
152,5,0.0385666,-0.0139236
152,6,0.0395966,-0.0163269
152,7,0.0333405,-0.0146103
152,8,0.0253677,-0.0150681
152,9,0.0204086,-0.0221252
153,0,0.0174332,-0.0299835
153,1,0.0146103,-0.0285721
153,2,0.0122452,-0.0224686
153,3,0.00823975,-0.015831
153,4,0.00572205,-0.0105667
153,5,-0.00347137,-0.00545502
153,6,-0.0256348,-0.00679016
153,7,-0.0387573,-0.00686646
153,8,-0.031395,-0.001297
153,9,-0.0196075,0.0043869
154,0,-0.01091,0.00362396
154,1,-0.00679016,0.00366211
154,2,-0.0104523,0.0132751
154,3,-0.0104904,0.0235748
154,4,0.0128174,0.0150299
154,5,0.0308609,0.00411987
154,6,0.0284958,0.000991821
154,7,0.020752,0.00175476
154,8,0.0147247,0.00522614
154,9,0.0144196,0.00152588
155,0,0.0203323,-0.00766754
155,1,0.0237274,-0.00793457
155,2,0.0208282,0.00171661
155,3,0.0154114,0.0087738
155,4,0.011673,0.0123215
155,5,0.00118256,0.0156784
155,6,-0.026474,0.0195312
155,7,-0.0468445,0.0300217
155,8,-0.0439835,0.040741
155,9,-0.0294495,0.0387955
156,0,-0.0218582,0.0315094
156,1,-0.0198364,0.0244141
156,2,-0.0206375,0.02388
156,3,-0.0224686,0.0283051
156,4,0.00461578,0.0147247
156,5,0.031395,-0.00705719
156,6,0.0321198,-0.0172806
156,7,0.0248718,-0.0190735
156,8,0.0189972,-0.0209808
156,9,0.0207138,-0.0315475
157,0,0.0228882,-0.044632
157,1,0.0189972,-0.0484467
157,2,0.0149918,-0.0430679
157,3,0.010376,-0.0346756
157,4,0.00858307,-0.02491
157,5,0.00179291,-0.0173187
157,6,-0.0206375,-0.0217056
157,7,-0.0331879,-0.0289917
157,8,-0.02491,-0.0157166
157,9,-0.0139999,-0.00415802
158,0,-0.0101471,-0.00366211
158,1,-0.0075531,-0.00835419
158,2,-0.0138855,-0.00225067
158,3,-0.0193787,0.00843048
158,4,0.00370026,-0.00617981
158,5,0.026474,-0.0264359
158,6,0.0252533,-0.0269318
158,7,0.0144958,-0.0175476
158,8,0.00717163,-0.0125504
158,9,0.00595093,-0.0144577
159,0,0.0100708,-0.0221634
159,1,0.0154495,-0.0236893
159,2,0.0145721,-0.0117493
159,3,0.00934601,0.000801086
159,4,0.00434875,0.0101089
159,5,-0.00621796,0.0188828
159,6,-0.0363922,0.01297
159,7,-0.0597763,0.00614166
159,8,-0.0524902,0.0281906
159,9,-0.0314331,0.0476456
160,0,-0.0182343,0.0455475
160,1,-0.0161743,0.0341415
160,2,-0.0172806,0.0305939
160,3,-0.0245667,0.0409698
160,4,0.000724792,0.0276947
160,5,0.0381851,0.00198364
160,6,0.0455856,-0.00835419
160,7,0.0349045,-0.00907898
160,8,0.0281525,-0.00957489
160,9,0.0296402,-0.0124741
161,0,0.0343323,-0.0185013
161,1,0.0336075,-0.0164032
161,2,0.0304031,-0.00392914
161,3,0.0265503,0.0112915
161,4,0.0227737,0.0194168
161,5,0.0176239,0.0233841
161,6,-0.00247955,0.0222015
161,7,-0.0245285,0.0115585
161,8,-0.0310898,0.0168228
161,9,-0.0230789,0.0261688
162,0,-0.0186539,0.0231171
162,1,-0.0219727,0.01091
162,2,-0.02388,0.00526428
162,3,-0.0304413,0.0154495
162,4,-0.0145721,0.0110626
162,5,0.0116348,-0.00785828
162,6,0.019455,-0.0219727
162,7,0.0123596,-0.0266266
162,8,0.0043869,-0.028801
162,9,0.000190735,-0.0349426
163,0,0.00370026,-0.0498581
163,1,0.0094223,-0.0568771
163,2,0.0101852,-0.0504684
163,3,0.00488281,-0.0392914
163,4,-0.000648499,-0.0338745
163,5,-0.00556946,-0.0299454
163,6,-0.0289536,-0.031662
163,7,-0.0543594,-0.0333786
163,8,-0.0551224,-0.0122452
163,9,-0.0359344,0.00968933
164,0,-0.0207901,0.0101852
164,1,-0.015564,0.00255585
164,2,-0.0130081,0.000343323
164,3,-0.0183487,0.00785828
164,4,-0.00133514,-0.00160217
164,5,0.0328827,-0.0252533
164,6,0.0458145,-0.0361633
164,7,0.0341415,-0.0320053
164,8,0.0211334,-0.0240326
164,9,0.015831,-0.0244141
165,0,0.0151062,-0.0391006
165,1,0.0122833,-0.0460815
165,2,0.0082016,-0.0351715
165,3,0.00385284,-0.0194931
165,4,0.0025177,-0.00629425
165,5,0.000267029,0.00183105
165,6,-0.0164795,-0.000419617
165,7,-0.0387573,-0.0120926
165,8,-0.042038,-0.00469208
165,9,-0.0262833,0.0112915
166,0,-0.01091,0.0222015
166,1,-0.00717163,0.0236511
166,2,-0.0111771,0.0261307
166,3,-0.0203705,0.0373077
166,4,-0.00797272,0.0408554
166,5,0.0214386,0.0245285
166,6,0.0333405,0.012207
166,7,0.0250244,0.0125885
166,8,0.0162888,0.0131989
166,9,0.0133514,0.0056839
167,0,0.0156403,-0.00988007
167,1,0.0193405,-0.0177383
167,2,0.0214005,-0.0103378
167,3,0.0204086,0.00450134
167,4,0.017395,0.0178146
167,5,0.0123596,0.025444
167,6,-0.00888824,0.0186157
167,7,-0.038147,0.00534058
167,8,-0.0430679,0.0283813
167,9,-0.0278854,0.0463867
168,0,-0.0138474,0.0370407
168,1,-0.00911713,0.0250244
168,2,-0.0104141,0.0221252
168,3,-0.0203705,0.0316238
168,4,-0.0127029,0.0261307
168,5,0.0203323,0.000114441
168,6,0.0366974,-0.0145721
168,7,0.0285721,-0.0144577
168,8,0.0177002,-0.0136185
168,9,0.0143814,-0.0181961
169,0,0.0171661,-0.0342178
169,1,0.0193787,-0.0435638
169,2,0.0204468,-0.0304794
169,3,0.0201416,-0.014534
169,4,0.0183868,-0.00507355
169,5,0.0147247,-3.8147e-05
169,6,-0.00442505,0.00343323
169,7,-0.0314331,-0.00591278
169,8,-0.038147,-0.00144958
169,9,-0.0305176,0.00988007
170,0,-0.0251007,0.00545502
170,1,-0.0237274,-0.0126648
170,2,-0.0231171,-0.0218582
170,3,-0.0291443,-0.00892639
170,4,-0.0185776,-0.000267029
170,5,0.0157547,-0.013504
170,6,0.0337601,-0.0232315
170,7,0.0314713,-0.0196838
170,8,0.0247574,-0.0117111
170,9,0.0226212,-0.00934601
171,0,0.0268936,-0.0168228
171,1,0.0408936,-0.0243378
171,2,0.0535965,-0.0202179
171,3,0.0536728,-0.00865936
171,4,0.0468063,0.00732422
171,5,0.0429153,0.0228882
171,6,0.0256729,0.0255966
171,7,-0.00629425,0.00598907
171,8,-0.0203323,0.00850677
171,9,-0.0178528,0.0345993
172,0,-0.018692,0.045433
172,1,-0.0260544,0.0341415
172,2,-0.0279236,0.0189972
172,3,-0.0331879,0.0222778
172,4,-0.030632,0.0243759
172,5,-0.0018692,0.00766754
172,6,0.014801,-0.00564575
172,7,0.0112534,-0.00579834
172,8,0.00137329,-0.000457764
172,9,-0.00591278,0.00289917
173,0,-0.00850677,-0.00492096
173,1,-0.00907898,-0.0132751
173,2,-0.00907898,-0.00957489
173,3,-0.0135422,-0.000534058
173,4,-0.0201797,0.00965118
173,5,-0.026741,0.0189972
173,6,-0.0380707,0.0276947
173,7,-0.0575256,0.0138855
173,8,-0.0638962,0.00499725
173,9,-0.0522614,0.0191116
174,0,-0.0341034,0.0255585
174,1,-0.0256348,0.0220108
174,2,-0.0231552,0.016098
174,3,-0.0294876,0.0244522
174,4,-0.0246811,0.0350189
174,5,0.0087738,0.0238419
174,6,0.0310135,0.0044632
174,7,0.0286865,-0.00862122
174,8,0.0216293,-0.017395
174,9,0.021553,-0.0223923
175,0,0.0257874,-0.0333405
175,1,0.0302124,-0.0508881
175,2,0.0294876,-0.0591278
175,3,0.0239944,-0.0519562
175,4,0.0190735,-0.0391769
175,5,0.0152206,-0.0286865
175,6,0.00144958,-0.022583
175,7,-0.0281143,-0.044899
175,8,-0.0443649,-0.058136
175,9,-0.0362396,-0.0324249
176,0,-0.0191116,-0.0183105
176,1,-0.00801086,-0.0272369
176,2,-0.0044632,-0.0300217
176,3,-0.0112534,-0.0148392
176,4,-0.0132751,0.00305176
176,5,0.0151825,-0.00785828
176,6,0.0393295,-0.0292206
176,7,0.0350571,-0.0343704
176,8,0.0227737,-0.0304031
176,9,0.0195694,-0.028801
177,0,0.0193405,-0.0358963
177,1,0.0144196,-0.0387955
177,2,0.0069809,-0.0207901
177,3,0.00114441,-0.00907898
177,4,-0.000686646,-0.0115204
177,5,-0.00125885,-0.0153351
177,6,-0.00728607,-0.0136185
177,7,-0.0249863,-0.0115967
177,8,-0.0341797,-0.00621796
177,9,-0.0278473,0.0105667
178,0,-0.014267,0.0227356
178,1,-0.00396729,0.0233078
178,2,0.00663757,0.0232697
178,3,0.0107956,0.0374222
178,4,0.00835419,0.0557709
178,5,0.0287628,0.0468826
178,6,0.0485229,0.0267029
178,7,0.0463486,0.020256
178,8,0.0351334,0.0205231
178,9,0.0288773,0.0220108
179,0,0.0244522,0.0174713
179,1,0.0210953,0.00415802
179,2,0.0170898,-0.000419617
179,3,0.00957489,0.00644684
179,4,-7.62939e-05,0.018425
179,5,-0.00839233,0.0315857
179,6,-0.0229263,0.0447464
179,7,-0.0492096,0.0419998
179,8,-0.0658798,0.0344849
179,9,-0.0590897,0.049057
180,0,-0.0401688,0.0684357
180,1,-0.0210571,0.0666046
180,2,-0.00125885,0.0430298
180,3,0.0111008,0.0233841
180,4,0.0110245,0.0187302
180,5,0.0408936,0.00522614
180,6,0.0764465,-0.0137329
180,7,0.0806427,-0.0216675
180,8,0.0633621,-0.022316
180,9,0.042305,-0.0246429
181,0,0.0234604,-0.0330734
181,1,0.00846863,-0.0468445
181,2,-0.00431061,-0.0492477
181,3,-0.0152969,-0.0357437
181,4,-0.0218201,-0.0215149
181,5,-0.0223923,-0.014267
181,6,-0.0231171,-0.00843048
181,7,-0.0407028,-0.0146484
181,8,-0.0548935,-0.0205612
181,9,-0.051918,-0.00160217
182,0,-0.0415039,0.0179291
182,1,-0.0352859,0.0188065
182,2,-0.0319672,0.0102615
182,3,-0.0342178,0.00881195
182,4,-0.0378799,0.0193787
182,5,-0.010376,0.0140762
182,6,0.0186157,-0.00137329
182,7,0.0233459,-0.00682831
182,8,0.0160599,-0.00724792
182,9,0.0082016,-0.00923157
183,0,0.00385284,-0.0143433
183,1,0.00415802,-0.019989
183,2,0.00801086,-0.017395
183,3,0.0101089,-0.00675201
183,4,0.00648499,0.00411987
183,5,0.00301361,0.0149155
183,6,-0.00362396,0.0235367
183,7,-0.0283813,0.010376
183,8,-0.0508499,0.0056839
183,9,-0.0499725,0.0269699
184,0,-0.0301743,0.0394058
184,1,-0.0145721,0.0327682
184,2,-0.0106049,0.0186157
184,3,-0.0121307,0.01091
184,4,-0.0194168,0.0179291
184,5,0.00171661,0.00892639
184,6,0.0321198,-0.00938416
184,7,0.0415802,-0.0150681
184,8,0.0393677,-0.0125885
184,9,0.0388336,-0.0112152
185,0,0.0381851,-0.0155258
185,1,0.0348663,-0.0271606
185,2,0.028038,-0.0302887
185,3,0.0237274,-0.0255966
185,4,0.0209045,-0.0212479
185,5,0.0149155,-0.0162888
185,6,0.00751495,-0.00713348
185,7,-0.00923157,-0.00801086
185,8,-0.0215912,-0.018692
185,9,-0.0208664,-0.0107956
186,0,-0.00934601,0.000801086
186,1,-0.000724792,0.001297
186,2,-3.8147e-05,-0.00652313
186,3,-0.00362396,-0.00797272
186,4,-0.0128937,0.00511169
186,5,-0.000343323,0.00858307
186,6,0.0218201,-0.0012207
186,7,0.0275803,-0.00808716
186,8,0.019455,-0.0112915
186,9,0.0088501,-0.0160217
187,0,0.00392914,-0.0218964
187,1,0.00354767,-0.0322342
187,2,0.00587463,-0.0381851
187,3,0.0062561,-0.030632
187,4,0.00385284,-0.0148392
187,5,0.00461578,0.00255585
187,6,0.00640869,0.0242615
187,7,-0.00652313,0.0499344
187,8,-0.0214005,0.0548172
187,9,-0.0194931,0.0619888
188,0,-0.00217438,0.0741577
188,1,0.00804901,0.0712967
188,2,0.0094223,0.0572586
188,3,0.00087738,0.0443649
188,4,-0.0140381,0.044899
188,5,0.00144958,0.033989
188,6,0.0321198,0.013237
188,7,0.038681,0.00270844
188,8,0.0224304,0.000114441
188,9,0.0056076,-0.00522614
189,0,-0.00209808,-0.0170135
189,1,-0.00293732,-0.0355148
189,2,-0.00137329,-0.0423431
189,3,-0.000915527,-0.0362396
189,4,-0.0030899,-0.0307846
189,5,-0.00511169,-0.0279617
189,6,-0.00976562,-0.02491
189,7,-0.0248337,-0.031929
189,8,-0.0409698,-0.0511169
189,9,-0.0440598,-0.0318527
190,0,-0.0350189,0.00415802
190,1,-0.0299835,0.0151443
190,2,-0.0269699,0.00385284
190,3,-0.0264359,-0.00312805
190,4,-0.0296402,0.00892639
190,5,-0.0153351,0.0106049
190,6,0.0123596,-0.00713348
190,7,0.0234985,-0.0220871
190,8,0.0159454,-0.0241089
190,9,0.00728607,-0.0218964
191,0,0.0062561,-0.0243759
191,1,0.00835419,-0.0355911
191,2,0.0133514,-0.043602
191,3,0.0149155,-0.0374603
191,4,0.01297,-0.0223541
191,5,0.00740051,-0.0104904
191,6,0.00038147,-0.00232697
191,7,-0.0193024,0.00293732
191,8,-0.0433731,-0.000648499
191,9,-0.0498962,0.0112915
192,0,-0.0395966,0.0296783
192,1,-0.0247955,0.0309753
192,2,-0.0121689,0.0227737
192,3,-0.00747681,0.0178909
192,4,-0.0133896,0.0246429
192,5,-0.00320435,0.0246048
192,6,0.026741,0.011673
192,7,0.0390625,0.0105667
192,8,0.0345993,0.0158691
192,9,0.0249481,0.0134659
193,0,0.0197601,0.00774384
193,1,0.0177383,-0.00343323
193,2,0.0165558,-0.0134277
193,3,0.0143814,-0.0119019
193,4,0.0104904,-0.00225067
193,5,0.00774384,0.00526428
193,6,0.00705719,0.00640869
193,7,-0.00564575,0.00347137
193,8,-0.0261688,-0.0219727
193,9,-0.031395,-0.0175858
194,0,-0.0225067,0.0130844
194,1,-0.0141144,0.0264359
194,2,-0.00663757,0.0217438
194,3,-0.00289917,0.0149536
194,4,-0.0101852,0.0209808
194,5,-0.00263214,0.0271606
194,6,0.0263214,0.0216675
194,7,0.0449371,0.0149155
194,8,0.044632,0.0146866
194,9,0.0394058,0.0188065
195,0,0.035553,0.0198364
195,1,0.0351715,0.0107574
195,2,0.0349426,-0.00183105
195,3,0.0301743,-0.00385284
195,4,0.0248337,0.00198364
195,5,0.0205612,0.00923157
195,6,0.0140381,0.0203323
195,7,-0.00701904,0.0231934
195,8,-0.0422287,0.00289917
195,9,-0.057869,0.00896454
196,0,-0.0471115,0.0376129
196,1,-0.0317383,0.043869
196,2,-0.0283051,0.0308228
196,3,-0.026474,0.0177002
196,4,-0.0263596,0.0179291
196,5,-0.0163269,0.017662
196,6,0.0168228,-0.00492096
196,7,0.0346756,-0.0235367
196,8,0.0310135,-0.0258636
196,9,0.0223541,-0.0209427
197,0,0.0222778,-0.0198364
197,1,0.0290298,-0.0284958
197,2,0.0323868,-0.039444
197,3,0.0252914,-0.0389481
197,4,0.0162888,-0.0305939
197,5,0.00968933,-0.0235748
197,6,0.00110626,-0.0219727
197,7,-0.0211716,-0.0226593
197,8,-0.0460815,-0.0389099
197,9,-0.0482941,-0.0456238
198,0,-0.0343323,-0.0241089
198,1,-0.0237274,-0.00473022
198,2,-0.0234222,-0.00587463
198,3,-0.0275421,-0.0124359
198,4,-0.0343704,-0.00740051
198,5,-0.0264359,-0.00137329
198,6,0.00312805,-0.0157166
198,7,0.022049,-0.0299072
198,8,0.0180817,-0.0315475
198,9,0.00816345,-0.0273514
199,0,0.0018692,-0.0218582
199,1,0.00106812,-0.026207
199,2,0.00461578,-0.0336838
199,3,0.00858307,-0.0294113
199,4,0.0075531,-0.0150681
199,5,0.0062561,0.000495911
199,6,0.00526428,0.0120926
199,7,-0.00556946,0.0196075
199,8,-0.0302124,0.0147629
199,9,-0.0419235,0.00766754
200,0,-0.0333786,0.0225067
200,1,-0.0211716,0.0323105
200,2,-0.0141144,0.0237656
200,3,-0.00991821,0.00808716
200,4,-0.0141907,0.00686646
200,5,-0.0205994,0.0141144
200,6,0.00278473,0.00171661
200,7,0.0216293,-0.0156021
200,8,0.0157928,-0.0154877
200,9,0.00629425,-0.00572205
201,0,0.00270844,-0.00160217
201,1,0.00377655,-0.0127792
201,2,0.00362396,-0.0331116
201,3,0.00190735,-0.0392914
201,4,0.00331879,-0.031929
201,5,0.00644684,-0.0242615
201,6,0.00667572,-0.0180054
201,7,0.00221252,-0.0135422
201,8,-0.0124359,-0.018959
201,9,-0.0182343,-0.0170517
202,0,-0.00476837,0.000915527
202,1,0.0133514,0.0133896
202,2,0.0181198,0.0131989
202,3,0.0118637,0.0136566
202,4,0.00473022,0.0239182
202,5,0.0043869,0.0362015
202,6,0.0269699,0.0257492
202,7,0.0439835,0.00953674
202,8,0.0390244,0.00457764
202,9,0.0284576,0.00720978
203,0,0.0247574,0.0132751
203,1,0.0290298,0.00984192
203,2,0.0310516,-0.00564575
203,3,0.0270844,-0.0101471
203,4,0.017395,0.00160217
203,5,0.00347137,0.013237
203,6,-0.00991821,0.0218964
203,7,-0.0263214,0.0304413
203,8,-0.0553131,0.0292587
203,9,-0.0732803,0.0388718
204,0,-0.0702286,0.0587845
204,1,-0.0539017,0.0650024
204,2,-0.0415421,0.0510788
204,3,-0.0377274,0.0375748
204,4,-0.042572,0.0370407
204,5,-0.0355911,0.0429535
204,6,0.00980377,0.0267792
204,7,0.0527573,0.00492096
204,8,0.0524139,-0.00797272
204,9,0.0230789,-0.00988007
205,0,0.00152588,-0.0121689
205,1,-0.00221252,-0.0203323
205,2,0.00221252,-0.0334167
205,3,0.00572205,-0.0337219
205,4,0.00457764,-0.0246811
205,5,0.00263214,-0.0156784
205,6,0.00564575,-0.00911713
205,7,0.0108719,-0.00511169
205,8,0.00629425,-0.021553
205,9,0.000534058,-0.0297165
206,0,0.00617981,-0.00972748
206,1,0.018692,0.0108337
206,2,0.0289154,0.0143051
206,3,0.0326157,0.0112152
206,4,0.022583,0.0151825
206,5,0.0176239,0.02388
206,6,0.0340271,0.0125504
206,7,0.042572,-0.0056076
206,8,0.0286484,-0.0149155
206,9,0.0122833,-0.0185776
207,0,0.00209808,-0.0162888
207,1,-0.00724792,-0.0141525
207,2,-0.0139999,-0.0218582
207,3,-0.0169373,-0.0270462
207,4,-0.0140762,-0.0213242
207,5,-0.00534058,-0.0118256
207,6,0.000495911,-0.00766754
207,7,3.8147e-05,-0.00335693
207,8,-0.0220108,0.00427246
207,9,-0.0455093,0.00919342
208,0,-0.048027,0.0273514
208,1,-0.0382233,0.0376892
208,2,-0.0402069,0.0246429
208,3,-0.0496674,0.00843048
208,4,-0.0554657,0.00663757
208,5,-0.0609207,0.017662
208,6,-0.0338745,0.00953674
208,7,0.00629425,-0.0069809
208,8,0.018959,-0.0125885
208,9,0.00587463,-0.0149536
209,0,0.00202179,-0.0179672
209,1,0.0118637,-0.0134659
209,2,0.0183868,-0.0136566
209,3,0.013237,-0.0211716
209,4,0.00846863,-0.0291824
209,5,0.00831604,-0.0287247
209,6,0.00484467,-0.0167084
209,7,0.000228882,-0.0043869
209,8,-0.00385284,0.00156403
209,9,-0.0087738,-0.00133514
210,0,-0.0115204,-0.00286102
210,1,-0.00572205,-0.0101852
210,2,0.00259399,-0.020752
210,3,0.00801086,-0.0209045
210,4,0.0102615,-0.00793457
210,5,0.0138855,0.0122452
210,6,0.0332642,0.0197601
210,7,0.0492096,0.0121307
210,8,0.0422287,0.0122452
210,9,0.0205994,0.0244141
211,0,0.0062561,0.039711
211,1,0.00320435,0.0395966
211,2,0.0102615,0.0188446
211,3,0.0243378,0.00785828
211,4,0.0307465,0.0199127
211,5,0.0211334,0.0304031
211,6,0.00282288,0.0296021
211,7,-0.0063324,0.0207138
211,8,-0.0188446,-0.0075531
211,9,-0.0354767,-0.0477219
212,0,-0.0416565,-0.0493622
212,1,-0.0327301,-0.0204849
212,2,-0.0116348,0.00228882
212,3,0.0150681,0.0104904
212,4,0.0360489,0.0196838
212,5,0.0367355,0.0381088
212,6,0.0429535,0.0390244
212,7,0.0530243,0.0181198
212,8,0.0440216,-0.00156403
212,9,0.0218201,-0.0125885
213,0,0.00743866,-0.0212097
213,1,0.00709534,-0.0284958
213,2,0.0104523,-0.0328064
213,3,0.00511169,-0.0297546
213,4,-0.00484467,-0.021553
213,5,-0.0125885,-0.0117493
213,6,-0.0177765,-0.000572205
213,7,-0.0206757,0.00904083
213,8,-0.0336838,0.0180054
213,9,-0.0471497,0.024147
214,0,-0.0468063,0.0331879
214,1,-0.0380707,0.0437546
214,2,-0.0325775,0.0429153
214,3,-0.0313568,0.03685
214,4,-0.0370026,0.0357819
214,5,-0.0457382,0.040741
214,6,-0.0366974,0.0334167
214,7,-0.0156784,0.0154114
214,8,-0.00717163,0.00450134
214,9,-0.00766754,0.00259399
215,0,-0.00244141,0.00328064
215,1,0.00370026,0.000762939
215,2,0.0157166,-0.00667572
215,3,0.0249863,-0.0111771
215,4,0.0263977,-0.00659943
215,5,0.0206757,0.00152588
215,6,0.0159073,0.00740051
215,7,0.0115204,0.0121689
215,8,-0.00511169,0.0154495
215,9,-0.0230408,0.0177765
216,0,-0.0251007,0.0246429
216,1,-0.0153351,0.0255966
216,2,-0.00629425,0.0193787
216,3,-0.00488281,0.010643
216,4,-0.00522614,0.00553131
216,5,-0.00999451,0.0108337
216,6,-0.00774384,0.0100708
216,7,0.00988007,-0.00328064
216,8,0.0164795,-0.00991821
216,9,0.0122833,-0.00713348
217,0,0.00926971,-0.00473022
217,1,0.0103378,-0.00759125
217,2,0.0127029,-0.015564
217,3,0.0148773,-0.0227737
217,4,0.018158,-0.022316
217,5,0.0195312,-0.0197983
217,6,0.0149536,-0.0163651
217,7,0.00892639,-0.0114822
217,8,-0.00247955,-0.00465393
217,9,-0.0199509,-0.00198364
218,0,-0.0265503,-0.0018692
218,1,-0.0224304,-0.00137329
218,2,-0.0139236,0.00110626
218,3,-0.00614166,0.00297546
218,4,-0.0019455,0.00545502
218,5,-0.0069046,0.0127029
218,6,-0.00244141,0.0175476
218,7,0.0167084,0.00881195
218,8,0.0276566,-0.00087738
218,9,0.0269318,-0.00289917
219,0,0.0248718,-0.000534058
219,1,0.0221252,-0.00213623
219,2,0.0232697,-0.00915527
219,3,0.0292587,-0.0154877
219,4,0.0337601,-0.0149536
219,5,0.0299072,-0.00999451
219,6,0.0185776,-0.00637054
219,7,0.00514984,-0.00225067
219,8,-0.0149536,0.00385284
219,9,-0.0412369,0.0152206
220,0,-0.0582123,0.0281525
220,1,-0.0552368,0.0336456
220,2,-0.0379944,0.0325394
220,3,-0.0148392,0.0283813
220,4,0.00423431,0.0228119
220,5,0.00915527,0.0252151
220,6,0.00846863,0.0291061
220,7,0.0208282,0.00728607
220,8,0.0257111,-0.0268173
220,9,0.019722,-0.0424194
221,0,0.0161362,-0.0345993
221,1,0.017395,-0.0245285
221,2,0.0217056,-0.0349045
221,3,0.0237656,-0.0479507
221,4,0.0225067,-0.0424194
221,5,0.0213623,-0.0247574
221,6,0.0197983,-0.014267
221,7,0.0170517,-0.00934601
221,8,0.0111771,0.000724792
221,9,-0.000305176,0.0153351
222,0,-0.00152588,0.0265884
222,1,0.00305176,0.0387955
222,2,-0.001297,0.0562286
222,3,-0.0123215,0.0661469
222,4,-0.0230789,0.0442886
222,5,-0.033493,0.00167847
222,6,-0.0431824,-0.0351715
222,7,-0.0318527,-0.0639343
222,8,-0.0141144,-0.0795364
222,9,-0.00476837,-0.0675583
223,0,-0.00274658,-0.0313568
223,1,0.00144958,0.00461578
223,2,0.0119781,0.0123215
223,3,0.0232697,-0.00492096
223,4,0.0282669,-0.0200653
223,5,0.0216293,-0.0183487
223,6,0.0128937,-0.00621796
223,7,0.00556946,-0.000305176
223,8,-0.00408173,-0.00148773
223,9,-0.0229645,0.0037384
224,0,-0.0361633,0.0208282
224,1,-0.0362396,0.0331497
224,2,-0.0260544,0.0368118
224,3,-0.0157928,0.0386047
224,4,-0.00747681,0.0394058
224,5,-0.00591278,0.0418472
224,6,-0.00831604,0.0460052
224,7,0.0056076,0.039711
224,8,0.0152588,0.0306702
224,9,0.00965118,0.0271988
225,0,0.00110626,0.0299835
225,1,-0.00553131,0.0265884
225,2,-0.00793457,0.0141144
225,3,-0.0112152,0.000419617
225,4,-0.0133514,-0.00267029
225,5,-0.0144196,0.0018692
225,6,-0.0107193,0.00888824
225,7,-0.00469208,0.0102997
225,8,-0.00484467,0.0101852
225,9,-0.0154495,0.0151443
226,0,-0.0239182,0.0188828
226,1,-0.0250626,0.0147629
226,2,-0.0221252,0.00579834
226,3,-0.017395,0.00137329
226,4,-0.00869751,0.00232697
226,5,-0.00602722,0.00652313
226,6,-0.00648499,0.00827789
226,7,0.00926971,0.00190735
226,8,0.0239944,0.00324249
226,9,0.0271606,0.0087738
227,0,0.0192261,0.00259399
227,1,0.0109863,-0.00801086
227,2,0.00778198,-0.0178146
227,3,0.0120163,-0.0292587
227,4,0.0156403,-0.0336838
227,5,0.0155258,-0.031662
227,6,0.01297,-0.0278473
227,7,0.00999451,-0.0252151
227,8,0.0018692,-0.0208664
227,9,-0.0151062,-0.0172043
228,0,-0.0287628,-0.0165939
228,1,-0.0266647,-0.0138855
228,2,-0.015564,-0.0116348
228,3,-0.00442505,-0.0135422
228,4,-0.00301361,-0.0138092
228,5,-0.00675201,-0.0114441
228,6,-0.0125885,-0.00385284
228,7,-0.00320435,-0.00221252
228,8,0.0114441,-0.00335693
228,9,0.0106049,-0.00125885
229,0,0.00110626,0.00537872
229,1,-0.00114441,0.00915527
229,2,0.0101852,-0.00240326
229,3,0.0311279,-0.0214386
229,4,0.0437164,-0.0281143
229,5,0.0400925,-0.0225067
229,6,0.030632,-0.0156021
229,7,0.0259399,-0.012207
229,8,0.0284195,-0.00732422
229,9,0.0259781,-0.00148773
230,0,0.0146103,0.00545502
230,1,0.00461578,0.0134277
230,2,-0.000839233,0.0167465
230,3,-0.00350952,0.0172043
230,4,-0.00736237,0.020256
230,5,-0.0136185,0.0294495
230,6,-0.0229263,0.0400162
230,7,-0.0153351,0.0357819
230,8,-0.00114441,0.0260925
230,9,0.000915527,0.021553
231,0,-0.00183105,0.0149155
231,1,0.00175476,-0.00278473
231,2,0.00957489,-0.0285721
231,3,0.0217056,-0.0423813
231,4,0.0304794,-0.0342178
231,5,0.0287628,-0.0193405
231,6,0.0188446,-0.0075531
231,7,0.0105286,0.00270844
231,8,0.00225067,0.0125122
231,9,-0.0172806,0.0185013
232,0,-0.0384903,0.0219727
232,1,-0.0465775,0.0179291
232,2,-0.0383759,0.0123978
232,3,-0.022316,0.0241089
232,4,-0.00930786,0.0516891
232,5,-0.00263214,0.0793839
232,6,-0.00709534,0.0931931
232,7,0.00331879,0.0837326
232,8,0.0133133,0.0597
232,9,0.00621796,0.0169754
233,0,-0.0110245,-0.0295639
233,1,-0.0219345,-0.0579071
233,2,-0.0286484,-0.0865936
233,3,-0.0296783,-0.141106
233,4,-0.026474,-0.169067
233,5,-0.0209045,-0.138855
233,6,-0.0199509,-0.0876999
233,7,-0.0258636,-0.0406647
233,8,-0.026474,-0.000343323
233,9,-0.0225067,0.0280762
234,0,-0.0164032,0.0260162
234,1,-0.00179291,-0.0019455
234,2,0.0214386,-0.0326538
234,3,0.0519562,-0.0319672
234,4,0.0741196,0.00465393
234,5,0.0751877,0.0325394
234,6,0.0595856,0.0364304
234,7,0.0513077,0.0275803
234,8,0.0478745,0.0135803
234,9,0.0308609,0.0062561
235,0,0.00976562,0.0147629
235,1,-0.00610352,0.0244904
235,2,-0.0143433,0.0299835
235,3,-0.0117493,0.028038
235,4,-0.00427246,0.0235748
235,5,3.8147e-05,0.026741
235,6,-3.8147e-05,0.038147
235,7,0.000839233,0.0479889
235,8,-0.0025177,0.0478745
235,9,-0.0153351,0.0403595
236,0,-0.0232315,0.0358963
236,1,-0.0120163,0.0384903
236,2,0.00190735,0.0397873
236,3,0.00339508,0.039978
236,4,-0.00293732,0.0407028
236,5,-0.0125504,0.0421524
236,6,-0.0261307,0.0473022
236,7,-0.0292206,0.0458527
236,8,-0.0219727,0.0317383
236,9,-0.0231552,0.0193405
237,0,-0.0281906,0.0172424
237,1,-0.0275803,0.0181961
237,2,-0.0229263,0.0131607
237,3,-0.0183105,-0.00324249
237,4,-0.0155258,-0.0244522
237,5,-0.0120163,-0.0366592
237,6,-0.00740051,-0.0353241
237,7,-0.00442505,-0.0253296
237,8,-0.00663757,-0.0186157
237,9,-0.0172043,-0.0144958
238,0,-0.0319672,-0.0120544
238,1,-0.0349808,-0.0130844
238,2,-0.0267792,-0.0218582
238,3,-0.0190735,-0.0378799
238,4,-0.0137711,-0.0519562
238,5,-0.00835419,-0.0397873
238,6,-0.00759125,-0.00610352
238,7,0.00198364,0.00888824
238,8,0.0211334,-0.00274658
238,9,0.0318146,-0.00972748
239,0,0.029068,-0.00934601
239,1,0.0259399,-0.0115204
239,2,0.0259399,-0.0188828
239,3,0.0251007,-0.027771
239,4,0.0243378,-0.0391006
239,5,0.0218201,-0.0568771
239,6,0.0186539,-0.0823593
239,7,0.0144577,-0.0915527
239,8,0.00358582,-0.0655365
239,9,-0.0204849,-0.0191498
240,0,-0.0386047,0.0186539
240,1,-0.0310516,0.0476837
240,2,-0.0177765,0.0624466
240,3,-0.0127792,0.0586319
240,4,-0.00968933,0.0440979
240,5,-0.00236511,0.0234222
240,6,0.000534058,-0.00225067
240,7,0.0132751,-0.0418472
240,8,0.037384,-0.0793457
240,9,0.0469589,-0.0695801
241,0,0.0360489,-0.0287628
241,1,0.0243759,-0.00930786
241,2,0.0205994,-0.0215912
241,3,0.0285721,-0.0325394
241,4,0.0418472,-0.0203705
241,5,0.0462723,-0.00583649
241,6,0.0429916,-0.00961304
241,7,0.0390244,-0.0218964
241,8,0.0391006,-0.0270462
241,9,0.0275421,-0.0318909
242,0,0.00610352,-0.0413895
242,1,-0.000953674,-0.0374985
242,2,0.00236511,-0.0056076
242,3,-0.000457764,0.0198364
242,4,-0.0088501,0.0324631
242,5,-0.0200272,0.0476837
242,6,-0.0339127,0.0628662
242,7,-0.0344467,0.0611115
242,8,-0.00762939,0.046196
242,9,0.0159454,0.0422287
243,0,0.0201797,0.0432205
243,1,0.0162506,0.0374603
243,2,0.0144196,0.029335
243,3,0.0144577,0.0162125
243,4,0.00923157,-0.000801086
243,5,0.00087738,-0.0154114
243,6,-0.00499725,-0.021553
243,7,-0.0101852,-0.0217819
243,8,-0.0141525,-0.00789642
243,9,-0.0302505,0.00801086
244,0,-0.0547409,0.00888824
244,1,-0.0643921,0.00244141
244,2,-0.0561905,-0.00385284
244,3,-0.0400162,-0.0130844
244,4,-0.0245667,-0.0192261
244,5,-0.0166702,-0.0128937
244,6,-0.0243378,0.00366211
244,7,-0.0257111,0.00473022
244,8,-0.00198364,-0.0225449
244,9,0.0135422,-0.0470352
245,0,0.0102234,-0.0494003
245,1,0.00305176,-0.0170517
245,2,0.000152588,0.034523
245,3,-0.00144958,0.050354
245,4,-0.00469208,0.0244904
245,5,-0.00644684,-0.00930786
245,6,-0.00801086,-0.0246429
245,7,-0.00473022,-0.0157928
245,8,-0.00106812,0.00240326
245,9,-0.00694275,0.0172043
246,0,-0.0245285,0.0336075
246,1,-0.0378418,0.055275
246,2,-0.0320053,0.0778198
246,3,-0.0185013,0.0795364
246,4,-0.00545502,0.0678253
246,5,0.00663757,0.0621414
246,6,0.00656128,0.0714874
246,7,0.00358582,0.0578308
246,8,0.0214386,0.00141144
246,9,0.0380707,-0.0484848
247,0,0.0383759,-0.0643921
247,1,0.0313568,-0.0626755
247,2,0.0288773,-0.0789261
247,3,0.0313568,-0.117264
247,4,0.0345612,-0.145035
247,5,0.0357819,-0.137787
247,6,0.0326538,-0.0977707
247,7,0.0217438,-0.0593185
247,8,0.00816345,-0.0464249
247,9,-0.00717163,-0.0455093
248,0,-0.0299454,-0.0475693
248,1,-0.0473022,-0.0323486
248,2,-0.0517654,-0.00110626
248,3,-0.0447083,0.0228882
248,4,-0.0265503,0.0350571
248,5,-0.00343323,0.0476074
248,6,0.00892639,0.0675201
248,7,0.00961304,0.0785828
248,8,0.0252151,0.0545502
248,9,0.0326157,0.0223541
249,0,0.0229263,0.00411987
249,1,0.0124359,-0.00473022
249,2,0.00766754,-0.00663757
249,3,0.00984192,-0.0103378
249,4,0.018692,-0.0146866
249,5,0.0285721,-0.00972748
249,6,0.0309753,-0.000343323
249,7,0.0290298,0.00804901
249,8,0.0234222,0.0194168
249,9,0.00911713,0.029335
250,0,-0.0166321,0.0123978
250,1,-0.0310898,0.0018692
250,2,-0.031662,0.0217056
250,3,-0.030098,0.0337219
250,4,-0.0292587,0.0242615
250,5,-0.0309753,0.014267
250,6,-0.0384903,0.0131226
250,7,-0.0427246,0.015564
250,8,-0.0166321,0.00499725
250,9,0.00926971,-0.0113678
251,0,0.0104904,-0.0169373
251,1,0.00293732,-0.00587463
251,2,0.000343323,0.0120926
251,3,0.00583649,0.0148392
251,4,0.0151825,-0.0056839
251,5,0.0169373,-0.0188065
251,6,0.00598907,-0.0102997
251,7,-0.00617981,0.01194
251,8,-0.010376,0.0395203
251,9,-0.0165558,0.063324
252,0,-0.0468445,0.0576401
252,1,-0.07164,0.0183487
252,2,-0.067482,-0.00415802
252,3,-0.0534821,0.0063324
252,4,-0.0508499,0.0200272
252,5,-0.0546265,0.0172424
252,6,-0.0564194,0.00675201
252,7,-0.04776,-0.0114822
252,8,-0.00541687,-0.0544357
252,9,0.0419617,-0.075264
253,0,0.0664139,-0.0520706
253,1,0.087204,-0.0185394
253,2,0.11467,-0.0124359
253,3,0.128746,-0.0548172
253,4,0.130959,-0.118523
253,5,0.140762,-0.142212
253,6,0.150909,-0.116043
253,7,0.142326,-0.0732803
253,8,0.111961,-0.0312424
253,9,0.0698471,0.0160217
254,0,0.0163269,0.0323486
254,1,-0.0226593,0.00873566
254,2,-0.0364685,0.00648499
254,3,-0.0380707,0.0183105
254,4,-0.0368118,0.025444
254,5,-0.0396347,0.0194931
254,6,-0.0487518,0.0025177
254,7,-0.0590897,-0.0133896
254,8,-0.0380325,-0.0288391
254,9,-0.0149155,-0.0447464
255,0,-0.0198746,-0.0767899
255,1,-0.0376892,-0.124321
255,2,-0.0454712,-0.149956
255,3,-0.0437164,-0.109901
255,4,-0.0395203,-0.0418091
255,5,-0.0408554,0.022049
255,6,-0.0465012,0.0724411
255,7,-0.0492477,0.0899506
255,8,-0.0452423,0.0717163
255,9,-0.0429916,0.0514984
256,0,-0.0546265,0.0454712
256,1,-0.0645065,0.0487518
256,2,-0.0506973,0.0641251
256,3,-0.0177002,0.0642776
256,4,0.01091,0.0424576
256,5,0.019722,0.0209045
256,6,0.017128,0.00293732
256,7,0.00347137,0.00732422
256,8,0.00972748,0.0279236
256,9,0.0156021,0.0522232
257,0,0.00362396,0.0614929
257,1,-0.0062561,0.0595093
257,2,-0.00347137,0.0578308
257,3,-0.00255585,0.0554276
257,4,-0.016098,0.0494385
257,5,-0.0344086,0.040741
257,6,-0.0418091,0.0242996
257,7,-0.0342941,-0.00999451
257,8,-0.0223541,-0.0415421
257,9,-0.0180817,-0.0159073
258,0,-0.026474,0.0361252
258,1,-0.0260925,0.0339508
258,2,-0.00270844,-0.0088501
258,3,0.030899,-0.0222397
258,4,0.0468063,0.0144196
258,5,0.0465012,0.0487518
258,6,0.0432587,0.0412369
258,7,0.0383759,0.0128174
258,8,0.0532532,-0.021019
258,9,0.0713348,-0.044899
259,0,0.0661469,-0.0494766
259,1,0.0556564,-0.038681
259,2,0.0528717,-0.0251389
259,3,0.0525665,-0.0199509
259,4,0.0539017,-0.0175095
259,5,0.0553131,-0.0135422
259,6,0.0526428,-0.0137329
259,7,0.0448227,-0.0157547
259,8,0.0400162,-0.0155258
259,9,0.0325775,-0.0109863
260,0,0.00114441,-0.0163269
260,1,-0.0353622,-0.0329208
260,2,-0.0505066,-0.0216293
260,3,-0.0458908,-0.00114441
260,4,-0.0380707,0.010643
260,5,-0.0366211,0.014267
260,6,-0.0412369,0.0173569
260,7,-0.0562286,0.0365448
260,8,-0.0510788,0.0450134
260,9,-0.0218964,0.0280762
261,0,-0.000762939,0.00461578
261,1,0.00171661,-0.0204468
261,2,-0.00404358,-0.0676346
261,3,-0.0146103,-0.122604
261,4,-0.0207901,-0.150108
261,5,-0.0258255,-0.142899
261,6,-0.0305176,-0.148735
261,7,-0.0320435,-0.171738
261,8,-0.030632,-0.140762
261,9,-0.0294113,-0.0512314
262,0,-0.0385666,0.0226212
262,1,-0.0513458,0.05867
262,2,-0.0518417,0.0774765
262,3,-0.0392532,0.0819397
262,4,-0.021553,0.072403
262,5,-0.00675201,0.0587463
262,6,0.00110626,0.0483704
262,7,0.0018692,0.0556564
262,8,0.0225449,0.0621414
262,9,0.0566864,0.0578308
263,0,0.0666809,0.0682831
263,1,0.0527191,0.110168
263,2,0.0356674,0.160027
263,3,0.0260162,0.166397
263,4,0.0260162,0.107079
263,5,0.0313568,0.041008
263,6,0.0310516,0.021286
263,7,0.0226593,0.0118256
263,8,0.00888824,-0.0445557
263,9,-0.00434875,-0.12104
264,0,-0.0229645,-0.170403
264,1,-0.0388718,-0.175438
264,2,-0.0358963,-0.121689
264,3,-0.0196838,-0.0873184
264,4,-0.010376,-0.105934
264,5,-0.0147247,-0.118637
264,6,-0.00782013,-0.0597763
264,7,0.00236511,0.0377655
264,8,0.0242233,0.0667953
264,9,0.0588989,0.0174713
265,0,0.0778961,-0.0194931
265,1,0.0793076,-0.015831
265,2,0.074234,-0.00904083
265,3,0.0733185,-0.0112915
265,4,0.0788116,-0.0149918
265,5,0.0810242,0.000915527
265,6,0.069313,0.0368881
265,7,0.0525284,0.0659561
265,8,0.0363159,0.07061
265,9,0.021286,0.0688171
266,0,7.62939e-05,0.0738907
266,1,-0.0304031,0.0708008
266,2,-0.0525284,0.0707626
266,3,-0.0573349,0.0854874
266,4,-0.0514984,0.0859451
266,5,-0.0525665,0.0662613
266,6,-0.0605011,0.0409698
266,7,-0.0729752,0.0311279
266,8,-0.0780487,0.0256729
266,9,-0.0638962,-0.00919342
267,0,-0.0574112,-0.0603867
267,1,-0.0561905,-0.0862885
267,2,-0.0520325,-0.0683975
267,3,-0.0461578,-0.030632
267,4,-0.0382233,-0.0103378
267,5,-0.032692,-0.00431061
267,6,-0.0336838,0.0145721
267,7,-0.0337982,0.0350189
267,8,-0.0204849,0.0463104
267,9,0.0030899,0.0529861
268,0,0.00518799,0.0400925
268,1,-0.0149918,0.00358582
268,2,-0.022316,-0.00740051
268,3,-0.000839233,0.0144958
268,4,0.0368118,0.0199127
268,5,0.051651,0.000152588
268,6,0.0417328,-0.0166321
268,7,0.0291824,-0.00972748
268,8,0.0424957,0.000648499
268,9,0.079689,-0.0139236
269,0,0.0904465,-0.0343704
269,1,0.0728989,-0.0450516
269,2,0.0526047,-0.0461578
269,3,0.0419235,-0.047226
269,4,0.0395966,-0.0563431
269,5,0.0363922,-0.0636292
269,6,0.0257492,-0.0588989
269,7,0.00431061,-0.0469971
269,8,-0.0168991,-0.03479
269,9,-0.0260162,-0.0283813
270,0,-0.038414,-0.0323105
270,1,-0.0649261,-0.0468445
270,2,-0.0785828,-0.0426865
270,3,-0.0769043,-0.017395
270,4,-0.0769806,0.00396729
270,5,-0.0795364,0.019455
270,6,-0.0745773,0.0326538
270,7,-0.0792313,0.0470352
270,8,-0.0885391,0.0537491
270,9,-0.0723648,0.0403976
271,0,-0.0495529,0.0328445
271,1,-0.0370026,0.0331497
271,2,-0.0280762,0.0193024
271,3,0.00709534,-0.00804901
271,4,0.0725174,-0.0359344
271,5,0.124664,-0.049324
271,6,0.131607,-0.04673
271,7,0.121613,-0.0385666
271,8,0.122299,-0.0286865
271,9,0.112495,-0.0131989
272,0,0.0679779,0.00545502
272,1,0.00495911,0.00343323
272,2,-0.031395,-0.000190735
272,3,-0.0317383,0.0138855
272,4,-0.019455,0.0240707
272,5,-0.013237,0.0274277
272,6,-0.011673,0.027504
272,7,-0.0075531,0.0350189
272,8,0.00499725,0.045433
272,9,0.0369644,0.0284576
273,0,0.0555038,-0.00240326
273,1,0.0577545,-0.0260925
273,2,0.0601578,-0.0421906
273,3,0.059166,-0.0522614
273,4,0.043869,-0.0579071
273,5,0.0169754,-0.0553513
273,6,-0.0133133,-0.0429916
273,7,-0.0365067,-0.0219345
273,8,-0.051918,0.00476837
273,9,-0.0681305,0.0217438
274,0,-0.0818253,0.0234222
274,1,-0.080719,-0.0031662
274,2,-0.0537109,-0.0191498
274,3,-0.0157166,0.00087738
274,4,0.0128555,0.0198746
274,5,0.0272751,0.0192261
274,6,0.0403595,-0.00530243
274,7,0.0533295,-0.0277328
274,8,0.0515747,-0.0101089
274,9,0.0606537,0.0239182
275,0,0.0627136,0.058136
275,1,0.0378418,0.0761414
275,2,-0.000228882,0.0689316
275,3,-0.0265503,0.0495148
275,4,-0.0310516,0.0273132
275,5,-0.0201797,0.00366211
275,6,-0.00900269,-0.00846863
275,7,-0.00598907,-0.0127029
275,8,-0.0172043,-0.015831
275,9,-0.0369644,-0.0107956
276,0,-0.057106,0.00347137
276,1,-0.0764465,-0.00617981
276,2,-0.0773239,-0.018425
276,3,-0.0588989,0.00228882
276,4,-0.0430298,0.0147247
276,5,-0.0398254,0.00144958
276,6,-0.0382233,-0.0127792
276,7,-0.0274658,-0.00118256
276,8,-0.0139236,0.0255966
276,9,0.0178909,0.0318909
277,0,0.0360489,0.0318527
277,1,0.0266647,0.0502396
277,2,0.0108719,0.0750732
277,3,0.00579834,0.0885773
277,4,-3.8147e-05,0.0815201
277,5,-0.0154877,0.0636292
277,6,-0.0341415,0.0460052
277,7,-0.0300598,0.02285
277,8,-0.000495911,-0.000534058
277,9,0.0204849,-0.011673
278,0,0.0207138,-0.0181198
278,1,0.0100708,-0.0532913
278,2,0.00514984,-0.118484
278,3,0.00995636,-0.164986
278,4,0.02388,-0.176659
278,5,0.0343704,-0.169601
278,6,0.0287247,-0.144615
278,7,0.0173187,-0.0815201
278,8,0.0166702,-0.000190735
278,9,0.0454712,0.0440216
279,0,0.0662994,0.0531006
279,1,0.0595856,0.044136
279,2,0.0450516,0.0248718
279,3,0.0409698,0.0139236
279,4,0.0396729,0.0182724
279,5,0.0370026,0.0169754
279,6,0.0374603,0.015564
279,7,0.036087,0.0251007
279,8,0.027504,0.0370026
279,9,0.0136948,0.0444031
280,0,-0.00427246,0.0501633
280,1,-0.03582,0.0431061
280,2,-0.0620651,0.0349045
280,3,-0.0678253,0.0515366
280,4,-0.0589371,0.0661469
280,5,-0.0491333,0.0602722
280,6,-0.0421906,0.0463867
280,7,-0.0437546,0.0395966
280,8,-0.0483322,0.0484848
280,9,-0.0238419,0.042305
281,0,0.00930786,0.0212479
281,1,0.0201416,0.00720978
281,2,0.012207,0.000610352
281,3,0.00686646,-0.00312805
281,4,0.00297546,-0.0133896
281,5,0.00385284,-0.0328827
281,6,0.00179291,-0.0425339
281,7,-0.00171661,-0.03582
281,8,-0.00270844,-0.0201416
281,9,-0.00102997,-0.0207138
282,0,-0.00392914,-0.0289917
282,1,-0.0247574,-0.0383377
282,2,-0.0407791,-0.0465775
282,3,-0.030632,-0.0410843
282,4,-0.0114059,-0.0297928
282,5,-0.00247955,-0.0297928
282,6,-0.00225067,-0.0355148
282,7,-0.00488281,-0.0389099
282,8,-0.00881195,-0.0321579
282,9,0.0168991,-0.038414
283,0,0.051384,-0.0527573
283,1,0.0587845,-0.0601959
283,2,0.0506973,-0.0584412
283,3,0.0458527,-0.049324
283,4,0.0445557,-0.0477219
283,5,0.0442123,-0.0616837
283,6,0.042305,-0.0678635
283,7,0.0339127,-0.0566864
283,8,0.0210953,-0.041008
283,9,0.00907898,-0.0294876
284,0,-0.00267029,-0.018692
284,1,-0.0289154,-0.0138474
284,2,-0.0561523,-0.017662
284,3,-0.0595856,-0.00507355
284,4,-0.0459671,0.0133896
284,5,-0.0330734,0.0182343
284,6,-0.0270844,0.0162888
284,7,-0.0248337,0.0178146
284,8,-0.0316238,0.0336075
284,9,-0.0160599,0.0321198
285,0,0.0209808,0.0195312
285,1,0.0343323,0.0157928
285,2,0.0246811,0.02388
285,3,0.016861,0.0340652
285,4,0.0148392,0.0324631
285,5,0.0153351,0.0156784
285,6,0.01194,0.0111008
285,7,0.00679016,0.0230408
285,8,0.00434875,0.0330734
285,9,0.00320435,0.0379181
286,0,0.00232697,0.0413132
286,1,-0.0138474,0.0354004
286,2,-0.0350189,0.0165558
286,3,-0.0403976,0.0263977
286,4,-0.026741,0.0459671
286,5,-0.0127411,0.0455475
286,6,-0.0062561,0.0340271
286,7,-0.00766754,0.0260544
286,8,-0.016098,0.0344849
286,9,0.00106812,0.0328827
287,0,0.0333405,0.0151062
287,1,0.0413132,0.00221252
287,2,0.030365,0.000648499
287,3,0.020256,0.00175476
287,4,0.0165176,-0.00522614
287,5,0.017395,-0.0233459
287,6,0.0214386,-0.033226
287,7,0.0210953,-0.0276947
287,8,0.0166702,-0.017128
287,9,0.00984192,-0.00968933
288,0,0.00396729,-0.00480652
288,1,-0.0148773,-0.00415802
288,2,-0.0452423,-0.0192642
288,3,-0.0542831,-0.00431061
288,4,-0.0413513,0.019455
288,5,-0.0248337,0.0226212
288,6,-0.0152588,0.0132751
288,7,-0.016098,0.010643
288,8,-0.0238419,0.0226593
288,9,-0.00747681,0.0230408
289,0,0.0332642,0.000572205
289,1,0.0483322,-0.0124741
289,2,0.0395584,-0.00572205
289,3,0.0269318,0.00473022
289,4,0.0219345,0.00751495
289,5,0.0186157,0.00816345
289,6,0.0136948,0.0157166
289,7,0.00801086,0.0177383
289,8,0.00465393,0.0133514
289,9,0.00484467,0.00972748
290,0,0.00339508,0.00778198
290,1,-0.010643,0.00404358
290,2,-0.0326157,-0.00354767
290,3,-0.0413132,0.00350952
290,4,-0.0304413,0.0152969
290,5,-0.0151443,0.0154114
290,6,-0.00892639,0.00911713
290,7,-0.00888824,0.00461578
290,8,-0.0151825,0.013237
290,9,-0.00839233,0.0178909
291,0,0.0177765,0.00606537
291,1,0.0340652,-0.00240326
291,2,0.0294113,0.00408173
291,3,0.0198746,0.0103378
291,4,0.0148773,0.00679016
291,5,0.0158691,-0.0114822
291,6,0.0205231,-0.0305176
291,7,0.0205612,-0.0319672
291,8,0.016098,-0.0191879
291,9,0.00923157,-0.00686646
292,0,0.000915527,0.00419617
292,1,-0.0161362,0.00988007
292,2,-0.0427628,0.00247955
292,3,-0.0549698,0.00663757
292,4,-0.0432205,0.0201797
292,5,-0.0259018,0.0214386
292,6,-0.0146484,0.00934601
292,7,-0.0107956,-0.000572205
292,8,-0.0208664,0.00709534
292,9,-0.0178909,0.0153351
293,0,0.0154114,0.00038147
293,1,0.0358963,-0.0125885
293,2,0.0331879,-0.0126266
293,3,0.0246429,-0.00785828
293,4,0.0215912,-0.00785828
293,5,0.0212479,-0.0204086
293,6,0.0201797,-0.0239944
293,7,0.0149155,0.00160217
293,8,0.00934601,0.0272751
293,9,0.00766754,0.0301743
294,0,0.00743866,0.0239944
294,1,-0.00747681,0.0245285
294,2,-0.0290298,0.0261688
294,3,-0.0374603,0.0292206
294,4,-0.0282669,0.0340652
294,5,-0.0144577,0.0345993
294,6,-0.00785828,0.0310135
294,7,-0.00572205,0.030632
294,8,-0.0130463,0.0401688
294,9,-0.0133514,0.0527191
295,0,0.0128174,0.0458527
295,1,0.0336838,0.0319672
295,2,0.0330353,0.0246811
295,3,0.0245285,0.0209808
295,4,0.018158,0.0161743
295,5,0.0188828,0.00270844
295,6,0.0228882,-0.0136566
295,7,0.0201416,0.000991821
295,8,0.0128937,0.02285
295,9,0.00953674,0.0196457
296,0,0.00865936,0.00461578
296,1,-0.0018692,-0.00476837
296,2,-0.0289917,-0.0168991
296,3,-0.046196,-0.0194168
296,4,-0.0381851,-0.014534
296,5,-0.0215149,-0.0162888
296,6,-0.0117111,-0.0244141
296,7,-0.00602722,-0.0363541
296,8,-0.00839233,-0.0397873
296,9,-0.0106812,-0.0355911
297,0,0.0159836,-0.0442886
297,1,0.0391006,-0.0492096
297,2,0.0350571,-0.0351715
297,3,0.0209808,-0.0219727
297,4,0.0127029,-0.0235367
297,5,0.0127029,-0.0402069
297,6,0.0143433,-0.062294
297,7,0.0113678,-0.0743484
297,8,0.00720978,-0.0732422
297,9,0.00495911,-0.0688934
298,0,0.001297,-0.0647736
298,1,-0.00686646,-0.0559235
298,2,-0.0300598,-0.045433
298,3,-0.0442886,-0.0333786
298,4,-0.0378799,-0.0177765
298,5,-0.0198746,-0.00831604
298,6,-0.00881195,-0.00431061
298,7,-0.00587463,-0.001297
298,8,-0.0102615,0.00930786
298,9,-0.00907898,0.0234604
299,0,0.0114822,0.0263596
299,1,0.029068,0.0505829
299,2,0.0256348,0.0736618
299,3,0.0178909,0.0671387
299,4,0.0144577,0.0469971
299,5,0.0141144,0.0256348
299,6,0.0167465,0.00385284
299,7,0.0190735,-0.00904083
299,8,0.0159454,-0.0094223
299,9,0.0125885,-0.00450134
300,0,0.00770569,0.00125885
300,1,-0.00511169,0.0108337
300,2,-0.0337982,0.017128
300,3,-0.057106,0.0240707
300,4,-0.0505447,0.0317001
300,5,-0.033493,0.0319672
300,6,-0.0215912,0.0295258
300,7,-0.0157547,0.0270462
300,8,-0.0123215,0.0297165
300,9,-0.0123596,0.0408554
301,0,0.0133896,0.0341415
301,1,0.0394821,0.0325012
301,2,0.0415802,0.0449753
301,3,0.0328445,0.0453949
301,4,0.0242996,0.0345993
301,5,0.020752,0.0180054
301,6,0.017662,-0.00152588
301,7,0.0158691,-0.0134277
301,8,0.01194,-0.0137329
301,9,0.00919342,-0.00995636
302,0,0.00591278,-0.0100327
302,1,-0.000495911,-0.0120926
302,2,-0.022316,-0.015831
302,3,-0.0382233,-0.0144958
302,4,-0.0335693,-0.00541687
302,5,-0.019989,-0.0025177
302,6,-0.0131226,-0.00694275
302,7,-0.0107193,-0.00930786
302,8,-0.0118637,-0.0030899
302,9,-0.0154877,0.0120163
303,0,0.00736237,0.0157547
303,1,0.0304794,0.0082016
303,2,0.0320816,-0.00171661
303,3,0.0254059,-0.00499725
303,4,0.0200272,-0.00469208
303,5,0.0151825,0.000801086
303,6,0.0136566,0.0118256
303,7,0.0140381,0.0121307
303,8,0.01297,0.00606537
303,9,0.00896454,0.00362396
304,0,0.00473022,0.00640869
304,1,-0.001297,0.00827789
304,2,-0.0284195,0.00473022
304,3,-0.0538635,0.00850677
304,4,-0.0527191,0.0204849
304,5,-0.0362396,0.0262833
304,6,-0.0218201,0.0197601
304,7,-0.0186539,0.0122833
304,8,-0.0225067,0.0177002
304,9,-0.0309753,0.0292969
305,0,-0.00556946,0.0148773
305,1,0.0310898,-0.00953674
305,2,0.039444,-0.0191116
305,3,0.0307465,-0.0171661
305,4,0.0219345,-0.0125885
305,5,0.0202179,-0.00545502
305,6,0.0207901,-0.00389099
305,7,0.0187683,-0.0094223
305,8,0.0166702,-0.0147629
305,9,0.0148392,-0.0154114
306,0,0.0136185,-0.0130844
306,1,0.00988007,-0.00656128
306,2,-0.0107574,0.00198364
306,3,-0.030632,0.00911713
306,4,-0.0300598,0.0175476
306,5,-0.0175858,0.0203705
306,6,-0.00736237,0.0151443
306,7,-0.00232697,0.0107956
306,8,-0.0031662,0.00938416
306,9,-0.0069809,0.0165558
307,0,0.00793457,0.0160599
307,1,0.0325394,0.0151443
307,2,0.0365829,0.0235367
307,3,0.0255203,0.0267792
307,4,0.017128,0.0218582
307,5,0.0157547,0.0129318
307,6,0.0215149,-0.00396729
307,7,0.0260544,-0.0188828
307,8,0.0220108,-0.0188065
307,9,0.0153732,-0.00995636
308,0,0.00999451,-0.00137329
308,1,0.00453949,0.00579834
308,2,-0.0195312,0.011673
308,3,-0.0465775,0.0170135
308,4,-0.0476837,0.0238037
308,5,-0.0337601,0.0255203
308,6,-0.0230789,0.0212097
308,7,-0.0200272,0.0141525
308,8,-0.0180435,0.0136566
308,9,-0.0234222,0.0234222
309,0,-0.0101852,0.018959
309,1,0.0199127,-0.00293732
309,2,0.0323868,-0.0156784
309,3,0.0247955,-0.0157547
309,4,0.0160599,-0.00831604
309,5,0.0129318,0.00286102
309,6,0.0130081,-0.00320435
309,7,0.0116348,-0.0183105
309,8,0.00907898,-0.0235367
309,9,0.00629425,-0.0209427
310,0,0.00434875,-0.0200653
310,1,0.000686646,-0.0204086
310,2,-0.0156021,-0.0180054
310,3,-0.0366974,-0.0201416
310,4,-0.0373459,-0.0136185
310,5,-0.0261688,-0.00537872
310,6,-0.0164032,-0.00804901
310,7,-0.0135422,-0.0156784
310,8,-0.0127029,-0.0133133
310,9,-0.0191498,0.00137329
311,0,-0.00518799,0.00518799
311,1,0.0227356,-0.00965118
311,2,0.0355148,-0.0219727
311,3,0.0287247,-0.0239944
311,4,0.0195312,-0.0226593
311,5,0.0136566,-0.0255966
311,6,0.0163651,-0.0374603
311,7,0.0215149,-0.0473404
311,8,0.0201797,-0.0444412
311,9,0.0150681,-0.0336075
312,0,0.00854492,-0.0240707
312,1,0.000991821,-0.017395
312,2,-0.0178909,-0.00835419
312,3,-0.0429916,0.00335693
312,4,-0.0487518,0.0194168
312,5,-0.0378036,0.0373459
312,6,-0.026207,0.0498199
312,7,-0.018692,0.0406265
312,8,-0.0141907,0.0265121
312,9,-0.0173187,0.0303268
313,0,-0.0101089,0.033493
313,1,0.0164413,0.018158
313,2,0.0312424,0.00476837
313,3,0.0294876,0.00267029
313,4,0.0225449,0.00461578
313,5,0.0177765,0.00652313
313,6,0.0193024,-0.00110626
313,7,0.0195694,-0.00926971
313,8,0.0175858,-0.00701904
313,9,0.0148773,0.00312805
314,0,0.013237,0.00923157
314,1,0.0117111,0.0173187
314,2,-0.00385284,0.0357437
314,3,-0.0240707,0.0544357
314,4,-0.0295258,0.0579071
314,5,-0.0182724,0.0521851
314,6,-0.00671387,0.0442505
314,7,-0.000953674,0.0419998
314,8,0.000343323,0.0385666
314,9,-0.00587463,0.0397491
315,0,-0.00106812,0.0397873
315,1,0.0228119,0.0242233
315,2,0.0361252,0.00770569
315,3,0.0359344,0.000762939
315,4,0.0310898,0.00038147
315,5,0.0260162,-0.000953674
315,6,0.02491,-0.0158691
315,7,0.0251389,-0.0328445
315,8,0.0215912,-0.0357056
315,9,0.0138855,-0.0269699
316,0,0.00724792,-0.0184631
316,1,-7.62939e-05,-0.0126266
316,2,-0.0218582,-0.00362396
316,3,-0.0524139,0.00259399
316,4,-0.0611115,0.00461578
316,5,-0.046196,0.00400543
316,6,-0.031662,-0.00450134
316,7,-0.0260925,-0.0128937
316,8,-0.0257874,-0.00911713
316,9,-0.0359344,0.0143814
317,0,-0.0307846,0.0276184
317,1,0.0031662,0.00999451
317,2,0.0268173,-0.00797272
317,3,0.0269318,-0.0142288
317,4,0.0217819,-0.0170898
317,5,0.0246429,-0.021286
317,6,0.0276947,-0.0286484
317,7,0.0286865,-0.0351334
317,8,0.028801,-0.0304031
317,9,0.0269318,-0.0226212
318,0,0.0233078,-0.0198746
318,1,0.0178528,-0.0186157
318,2,0.00514984,-0.0117493
318,3,-0.0136566,-0.00774384
318,4,-0.0240707,0.00228882
318,5,-0.0233078,0.0188446
318,6,-0.0133514,0.0212479
318,7,-0.00545502,0.00984192
318,8,0.000267029,7.62939e-05
318,9,-0.00778198,0.00469208
319,0,-0.0107574,0.00850677
319,1,0.0094986,-0.00606537
319,2,0.0223541,-0.0190353
319,3,0.0169373,-0.0249481
319,4,0.00534058,-0.0277328
319,5,-0.00102997,-0.0297165
319,6,0.000801086,-0.0393677
319,7,0.0037384,-0.0504303
319,8,0.00152588,-0.0484467
319,9,-0.00331879,-0.0371933
320,0,-0.0069046,-0.0255203
320,1,-0.00999451,-0.0172806
320,2,-0.0230789,-0.00736237
320,3,-0.0504684,0.00637054
320,4,-0.0649643,0.0151443
320,5,-0.0560379,0.0139236
320,6,-0.0428391,0.00831604
320,7,-0.0378799,0.00587463
320,8,-0.0341415,0.00411987
320,9,-0.0308609,0.0114441
321,0,-0.0244141,0.0202942
321,1,0.0038147,0.0117874
321,2,0.026741,0.000572205
321,3,0.0268936,-0.00205994
321,4,0.0195694,-0.00141144
321,5,0.0178909,-0.00164032
321,6,0.0237274,-0.00999451
321,7,0.0325012,-0.0222397
321,8,0.0397873,-0.0221634
321,9,0.0467682,-0.0130844
322,0,0.0563431,-0.00225067
322,1,0.0626755,0.00831604
322,2,0.0557709,0.0188065
322,3,0.0302887,0.0284958
322,4,0.0110245,0.0352097
322,5,0.0094986,0.0377274
322,6,0.0112915,0.0348282
322,7,0.00789642,0.0312805
322,8,-0.001297,0.030632
322,9,-0.0178146,0.0409698
323,0,-0.0265884,0.051384
323,1,-0.00617981,0.0431824
323,2,0.0133133,0.0310898
323,3,0.0149918,0.0269699
323,4,0.00846863,0.0257492
323,5,0.00156403,0.0210953
323,6,-0.00190735,0.00968933
323,7,-0.00225067,-0.00984192
323,8,-0.0038147,-0.0198746
323,9,-0.00663757,-0.0152588
324,0,-0.0120926,-0.00732422
324,1,-0.017395,0.000152588
324,2,-0.0258255,0.00656128
324,3,-0.0468063,0.0175095
324,4,-0.0584793,0.0282288
324,5,-0.0457764,0.0302505
324,6,-0.02388,0.0217056
324,7,-0.0111389,0.011673
324,8,-0.00862122,0.00785828
324,9,-0.0108337,0.01194
325,0,-0.0139999,0.0201416
325,1,0.00335693,0.010643
325,2,0.0218582,-0.00614166
325,3,0.022316,-0.0134659
325,4,0.0141907,-0.0115967
325,5,0.0111389,-0.0109482
325,6,0.0146866,-0.0190735
325,7,0.0181961,-0.0294876
325,8,0.0187683,-0.0307465
325,9,0.0157928,-0.0240326
326,0,0.0125504,-0.017395
326,1,0.0102615,-0.013237
326,2,0.00686646,-0.00621796
326,3,-0.00904083,0.00396729
326,4,-0.0221634,0.0101852
326,5,-0.0170898,0.0131989
326,6,-0.00301361,0.0143051
326,7,0.00358582,0.0117874
326,8,0.00614166,0.00659943
326,9,0.000419617,0.0087738
327,0,-0.00720978,0.0190353
327,1,0.00839233,0.0147629
327,2,0.0273514,-0.00228882
327,3,0.0305939,-0.00991821
327,4,0.0226212,-0.00759125
327,5,0.0134659,-0.00938416
327,6,0.00938416,-0.0177002
327,7,0.0114059,-0.0341797
327,8,0.0152969,-0.0418472
327,9,0.014801,-0.0359726
328,0,0.0113678,-0.0252533
328,1,0.00587463,-0.0160217
328,2,-0.00232697,-0.00385284
328,3,-0.0197983,0.0110245
328,4,-0.0321579,0.0224686
328,5,-0.0295639,0.0285721
328,6,-0.0194168,0.0242233
328,7,-0.0107956,0.0147629
328,8,-0.00709534,0.00854492
328,9,-0.00915527,0.00656128
329,0,-0.0209427,0.0125504
329,1,-0.00953674,0.00492096
329,2,0.0125885,-0.00999451
329,3,0.0163269,-0.0133514
329,4,0.00900269,-0.00793457
329,5,0.00518799,-0.0038147
329,6,0.00434875,-0.00602722
329,7,0.00469208,-0.0200272
329,8,0.0075531,-0.0294113
329,9,0.0104523,-0.0298691
330,0,0.00938416,-0.0254822
330,1,0.00587463,-0.0222778
330,2,0.00286102,-0.0185776
330,3,-0.0123215,-0.00850677
330,4,-0.0264359,-0.000228882
330,5,-0.0248337,0.0025177
330,6,-0.0128174,0.00278473
330,7,-0.00408173,0.00347137
330,8,-0.000495911,0.00507355
330,9,0.00278473,0.00648499
331,0,-0.00247955,0.0175476
331,1,0.00705719,0.0157928
331,2,0.0245667,0.00320435
331,3,0.0277328,-0.00457764
331,4,0.021553,-0.00324249
331,5,0.0170135,0.00190735
331,6,0.0167084,0.00156403
331,7,0.0208664,-0.00904083
331,8,0.0230789,-0.0137329
331,9,0.0217438,-0.00801086
332,0,0.0149918,-0.000686646
332,1,0.00892639,0.00427246
332,2,0.00293732,0.00919342
332,3,-0.0164032,0.0173187
332,4,-0.0361252,0.0246048
332,5,-0.0377655,0.0308609
332,6,-0.027771,0.0296783
332,7,-0.0208664,0.0225449
332,8,-0.0175476,0.014267
332,9,-0.0200653,0.0124359
333,0,-0.025444,0.0214005
333,1,-0.013237,0.0195312
333,2,0.00793457,0.00324249
333,3,0.0082016,-0.00400543
333,4,0.00125885,-0.00370026
333,5,-0.00434875,-0.00442505
333,6,-0.00576019,-0.0114059
333,7,-0.00465393,-0.02491
333,8,-0.00392914,-0.031395
333,9,-0.00656128,-0.0273132
334,0,-0.0102615,-0.0203705
334,1,-0.0101089,-0.0133896
334,2,-0.0100708,-0.00652313
334,3,-0.0177765,0.00724792
334,4,-0.0278091,0.0198364
334,5,-0.0259399,0.0259018
334,6,-0.0141907,0.0269318
334,7,-0.00289917,0.0242996
334,8,0.00282288,0.0215149
334,9,0.00782013,0.0201416
335,0,0.00312805,0.0289154
335,1,0.0113678,0.0272751
335,2,0.0278473,0.0170517
335,3,0.0328064,0.0143051
335,4,0.0305176,0.014534
335,5,0.0254059,0.0133133
335,6,0.0209427,0.0110245
335,7,0.0177002,0.0107956
335,8,0.0152206,0.0113297
335,9,0.0115967,0.00640869
336,0,0.00850677,0.00385284
336,1,0.00762939,0.00274658
336,2,0.00656128,0.00286102
336,3,-0.00774384,0.00362396
336,4,-0.0288773,0.00843048
336,5,-0.0347137,0.0152206
336,6,-0.0240326,0.0179672
336,7,-0.00988007,0.0144958
336,8,0.000419617,0.00797272
336,9,0.00537872,0.00343323
337,0,0.00171661,0.00709534
337,1,0.0114822,0.00938416
337,2,0.0366974,0.0012207
337,3,0.0481415,-0.0087738
337,4,0.0401688,-0.0157928
337,5,0.0269318,-0.0196838
337,6,0.0205994,-0.0233078
337,7,0.0188446,-0.0349045
337,8,0.0163651,-0.0434875
337,9,0.0116348,-0.0414276
338,0,0.00648499,-0.0357819
338,1,0.000801086,-0.030632
338,2,-0.001297,-0.0281143
338,3,-0.0127411,-0.0203705
338,4,-0.0318146,-0.0112152
338,5,-0.0391006,-0.00457764
338,6,-0.0298691,-0.00408173
338,7,-0.0175095,-0.00648499
338,8,-0.0117493,-0.00873566
338,9,-0.0162125,-0.00450134
339,0,-0.0248337,0.00923157
339,1,-0.0175095,0.0119781
339,2,0.00526428,0.0018692
339,3,0.0179672,-0.00629425
339,4,0.0169754,-0.00671387
339,5,0.0141525,-0.00541687
339,6,0.0136185,-0.00648499
339,7,0.0148392,-0.0154114
339,8,0.0187302,-0.023613
339,9,0.0191498,-0.0214005
340,0,0.013237,-0.0117111
340,1,0.00499725,-0.00511169
340,2,-0.00118256,-0.00183105
340,3,-0.0131226,0.00343323
340,4,-0.03479,0.0163269
340,5,-0.0433731,0.0270462
340,6,-0.0348282,0.0306702
340,7,-0.0251389,0.0274277
340,8,-0.0185776,0.0232315
340,9,-0.0190735,0.0202942
341,0,-0.02388,0.0268936
341,1,-0.0176239,0.0325012
341,2,0.00701904,0.0199127
341,3,0.019722,0.00423431
341,4,0.0165558,-0.00408173
341,5,0.00923157,-0.00652313
341,6,0.00469208,-0.00499725
341,7,0.00499725,-0.0115585
341,8,0.00747681,-0.0215912
341,9,0.00606537,-0.0262833
342,0,0.00255585,-0.0231934
342,1,0.0025177,-0.016861
342,2,0.00370026,-0.00835419
342,3,-0.00175476,0.00518799
342,4,-0.0139236,0.020256
342,5,-0.0199127,0.0236511
342,6,-0.0167084,0.0183487
342,7,-0.0082016,0.0164032
342,8,-0.00110626,0.0231934
342,9,0.0044632,0.0341797
343,0,0.00293732,0.0453568
343,1,0.00579834,0.0407791
343,2,0.0217438,0.0194168
343,3,0.0323486,0.0143814
343,4,0.030899,0.0248337
343,5,0.0276566,0.0235367
343,6,0.0304031,-0.000610352
343,7,0.0372314,-0.0341034
343,8,0.0385284,-0.0469589
343,9,0.0314331,-0.0262833
344,0,0.0195312,-0.00278473
344,1,0.0114822,-0.000305176
344,2,0.00629425,-0.00598907
344,3,-0.00759125,-0.00770569
344,4,-0.0333023,-0.00789642
344,5,-0.0458145,-0.013237
344,6,-0.0384903,-0.0109482
344,7,-0.0273895,0.000228882
344,8,-0.0214767,0.00919342
344,9,-0.0211716,0.0136185
345,0,-0.0245667,0.0165176
345,1,-0.0245667,0.0118256
345,2,-0.00659943,-0.00171661
345,3,0.00789642,0.00331879
345,4,0.00892639,0.0226593
345,5,0.00629425,0.0273132
345,6,0.00453949,0.0120926
345,7,0.00732422,-0.00823975
345,8,0.0148392,-0.02285
345,9,0.0188828,-0.0311279
346,0,0.0202179,-0.0353622
346,1,0.0209427,-0.0334549
346,2,0.0234222,-0.0281906
346,3,0.0226974,-0.0212479
346,4,0.00804901,-0.00759125
346,5,-0.00408173,0.00621796
346,6,-0.00392914,0.0143433
346,7,-0.00320435,0.018158
346,8,-0.00431061,0.0136185
346,9,-0.00667572,0.00461578
347,0,-0.00892639,0.000953674
347,1,-0.0125885,-0.00133514
347,2,0.00160217,-0.0130081
347,3,0.013504,-0.0217438
347,4,0.0151062,-0.0187683
347,5,0.0139999,-0.0136185
347,6,0.0143814,-0.0100327
347,7,0.0162888,-0.0105286
347,8,0.0198746,-0.0156403
347,9,0.0193787,-0.0167847
348,0,0.0131989,-0.00988007
348,1,0.00694275,0.000724792
348,2,0.00038147,0.00522614
348,3,-0.0104904,0.00732422
348,4,-0.0317001,0.0205994
348,5,-0.0470352,0.0352097
348,6,-0.0485992,0.0384903
348,7,-0.0405121,0.0317001
348,8,-0.0336456,0.0259399
348,9,-0.0344086,0.0346375
349,0,-0.033989,0.0547028
349,1,-0.0315857,0.0613785
349,2,-0.0118256,0.0331497
349,3,0.00598907,-0.00713348
349,4,0.0094986,-0.0359726
349,5,0.00724792,-0.0452423
349,6,0.00816345,-0.041275
349,7,0.0133133,-0.039711
349,8,0.0204468,-0.0444412
349,9,0.0235367,-0.0402451
350,0,0.0213242,-0.0263214
350,1,0.0173569,-0.0114822
350,2,0.0135803,-0.00160217
350,3,0.00679016,0.00709534
350,4,-0.0121307,0.0152969
350,5,-0.0243378,0.0187683
350,6,-0.0205612,0.0121689
350,7,-0.0120544,-0.00175476
350,8,-0.00846863,-0.0141907
350,9,-0.00808716,-0.0221634
351,0,-0.00873566,-0.0222397
351,1,-0.00762939,-0.00751495
351,2,0.00892639,0.00419617
351,3,0.0256729,0.00427246
351,4,0.0235748,0.000305176
351,5,0.0164032,-0.00354767
351,6,0.0120163,-0.00663757
351,7,0.0116348,-0.00526428
351,8,0.0164032,-0.00297546
351,9,0.0214005,3.8147e-05
352,0,0.0222778,0.00587463
352,1,0.0226974,0.0112152
352,2,0.0217438,0.0141525
352,3,0.0128174,0.0147629
352,4,-0.00900269,0.0183487
352,5,-0.0240707,0.0229645
352,6,-0.0210953,0.0254059
352,7,-0.0117111,0.0210571
352,8,-0.00713348,0.018425
352,9,-0.00598907,0.014534
353,0,-0.00743866,0.00751495
353,1,-0.0119781,0.00736237
353,2,0.000267029,0.00549316
353,3,0.0173569,0.0019455
353,4,0.0175858,-0.000114441
353,5,0.0104523,0.00102997
353,6,0.0056839,-0.000762939
353,7,0.00366211,-0.00972748
353,8,0.00453949,-0.0188065
353,9,0.00747681,-0.0164795
354,0,0.0119019,-0.00823975
354,1,0.0146866,-0.0030899
354,2,0.0134659,-0.00148773
354,3,0.00652313,0.000686646
354,4,-0.00953674,0.00724792
354,5,-0.0209427,0.0122452
354,6,-0.0193024,0.0094986
354,7,-0.0123215,0.00408173
354,8,-0.00858307,0.00541687
354,9,-0.00816345,0.00782013
355,0,-0.0117111,0.0110626
355,1,-0.0187302,0.0174332
355,2,-0.00732422,0.0123215
355,3,0.00816345,-3.8147e-05
355,4,0.0103378,-0.00774384
355,5,0.00125885,-0.0123978
355,6,-0.00377655,-0.0205612
355,7,-0.00339508,-0.0375748
355,8,-0.00102997,-0.0570297
355,9,0.000495911,-0.0589371
356,0,-0.000724792,-0.0414658
356,1,-0.00419617,-0.0214767
356,2,-0.00667572,-0.0038147
356,3,-0.0103378,0.0112915
356,4,-0.0222015,0.0246048
356,5,-0.0341415,0.0284958
356,6,-0.0294876,0.0240707
356,7,-0.0125504,0.0105667
356,8,0.00156403,-0.00106812
356,9,0.00720978,0.000686646
357,0,0.00648499,0.0112152
357,1,0.00118256,0.0235367
357,2,0.0164413,0.0253296
357,3,0.0387955,0.0118256
357,4,0.0438309,-0.00396729
357,5,0.0395203,-0.0121689
357,6,0.0387573,-0.0156784
357,7,0.0364304,-0.0252533
357,8,0.0320435,-0.0469208
357,9,0.0238037,-0.0564575
358,0,0.0139618,-0.0463867
358,1,0.00518799,-0.0302505
358,2,-0.00102997,-0.0168991
358,3,-0.00576019,-0.00846863
358,4,-0.0195694,3.8147e-05
358,5,-0.0349045,0.00671387
358,6,-0.0374222,0.0101852
358,7,-0.0302505,0.0151443
358,8,-0.0248718,0.021553
358,9,-0.0216293,0.0249481
359,0,-0.0221634,0.0305176
359,1,-0.0268936,0.0442505
359,2,-0.0151062,0.0456619
359,3,0.00701904,0.0314331
359,4,0.0155258,0.0217819
359,5,0.0154877,0.0213242
359,6,0.0157166,0.0222397
359,7,0.0170135,0.0177765
359,8,0.0203323,0.00465393
359,9,0.0246048,-0.00679016
360,0,0.0210571,-0.0102234
360,1,0.0118256,-0.00869751
360,2,0.00476837,-0.00614166
360,3,-0.000686646,-0.00465393
360,4,-0.0218201,0.00175476
360,5,-0.0449371,0.00846863
360,6,-0.0498581,0.0123215
360,7,-0.041275,0.0107956
360,8,-0.0287247,0.00728607
360,9,-0.0231171,0.00682831
361,0,-0.0195312,0.00617981
361,1,-0.0215912,0.0069046
361,2,-0.00835419,-0.000457764
361,3,0.0180435,-0.0142288
361,4,0.0287628,-0.0229263
361,5,0.0242233,-0.0225449
361,6,0.018959,-0.0207901
361,7,0.0176239,-0.0214005
361,8,0.0192261,-0.0295258
361,9,0.0183105,-0.0370026
362,0,0.0146866,-0.0335312
362,1,0.0120544,-0.025177
362,2,0.0100327,-0.0183868
362,3,0.00801086,-0.0159073
362,4,-0.00408173,-0.00907898
362,5,-0.0218964,0.00148773
362,6,-0.028038,0.00923157
362,7,-0.0198746,0.0122452
362,8,-0.00846863,0.00923157
362,9,-0.00144958,0.00427246
363,0,0.000190735,0.00473022
363,1,-0.0062561,0.0167465
363,2,0.000457764,0.0232315
363,3,0.0219727,0.0119019
363,4,0.0317764,-0.00038147
363,5,0.026474,-0.00370026
363,6,0.0205994,-0.00480652
363,7,0.0186157,-0.00869751
363,8,0.0202179,-0.0180435
363,9,0.0235748,-0.0296402
364,0,0.0223541,-0.0336075
364,1,0.0167465,-0.0309753
364,2,0.0110626,-0.0261688
364,3,0.00598907,-0.0194168
364,4,-0.00846863,-0.00713348
364,5,-0.03479,0.00671387
364,6,-0.0428009,0.0193024
364,7,-0.0310516,0.0236511
364,8,-0.0188065,0.020256
364,9,-0.0138092,0.0186157
365,0,-0.0112152,0.0181198
365,1,-0.017128,0.0235367
365,2,-0.0123596,0.0248718
365,3,0.0126648,0.0159073
365,4,0.0284576,0.00663757
365,5,0.0246429,0.00587463
365,6,0.015564,0.00778198
365,7,0.0122452,0.00648499
365,8,0.0142288,-0.00881195
365,9,0.015564,-0.0233078
366,0,0.0130463,-0.0204849
366,1,0.0114822,-0.0100327
366,2,0.0117111,-0.00549316
366,3,0.00907898,-0.00331879
366,4,-0.00133514,0.00511169
366,5,-0.0219345,0.0186157
366,6,-0.0320816,0.0279617
366,7,-0.0279617,0.0279999
366,8,-0.0183487,0.0217056
366,9,-0.014267,0.0143051
367,0,-0.0133133,0.00804901
367,1,-0.0195694,0.0124359
367,2,-0.0138092,0.0169373
367,3,0.00972748,0.00736237
367,4,0.020256,-0.00385284
367,5,0.0160599,-0.00637054
367,6,0.0113678,-0.00366211
367,7,0.00965118,-0.0038147
367,8,0.0119019,-0.0134277
367,9,0.0170898,-0.0241089
368,0,0.0204849,-0.0197601
368,1,0.0180435,-0.00682831
368,2,0.0158691,-0.00232697
368,3,0.0127411,-0.00354767
368,4,-0.001297,-0.00114441
368,5,-0.0324249,0.00968933
368,6,-0.0470352,0.018692
368,7,-0.0428009,0.0187683
368,8,-0.0311661,0.0112152
368,9,-0.0214767,0.000343323
369,0,-0.0177383,-0.00686646
369,1,-0.0256729,0.00377655
369,2,-0.0291061,0.016861
369,3,0.00202179,-0.00110626
369,4,0.0287247,-0.0230026
369,5,0.0263977,-0.0333786
369,6,0.0177383,-0.0344086
369,7,0.0131989,-0.0346756
369,8,0.013237,-0.0470734
369,9,0.0154495,-0.0509262
370,0,0.0157166,-0.0392914
370,1,0.0144196,-0.0255585
370,2,0.0121307,-0.0218582
370,3,0.00904083,-0.0243378
370,4,-0.00087738,-0.0181961
370,5,-0.0195312,-0.011673
370,6,-0.0308228,-0.0121307
370,7,-0.0269699,-0.0105667
370,8,-0.018692,-0.0127029
370,9,-0.00865936,-0.0170517
371,0,-0.00328064,-0.0177002
371,1,-0.00659943,-0.0106049
371,2,-0.0101471,0.00110626
371,3,0.0138474,-0.00492096
371,4,0.0338364,-0.0137711
371,5,0.0344849,-0.0145721
371,6,0.0286865,-0.00953674
371,7,0.0228882,-0.00320435
371,8,0.0216293,-0.00617981
371,9,0.0244904,-0.0164032
372,0,0.0242996,-0.0172424
372,1,0.0178528,-0.00518799
372,2,0.0112534,0.00656128
372,3,0.00461578,0.0131226
372,4,-0.00965118,0.0203705
372,5,-0.0365829,0.0278854
372,6,-0.0534439,0.0353241
372,7,-0.0488663,0.0403595
372,8,-0.0353241,0.0388718
372,9,-0.0274658,0.0334167
373,0,-0.0218582,0.0306702
373,1,-0.0229263,0.0418091
373,2,-0.0246048,0.0572205
373,3,0.00411987,0.0463486
373,4,0.0280762,0.0246811
373,5,0.0279999,0.0123596
373,6,0.0209427,0.00785828
373,7,0.0153351,-0.00087738
373,8,0.0152206,-0.0169754
373,9,0.0160599,-0.0306702
374,0,0.0152588,-0.033226
374,1,0.0122833,-0.0283051
374,2,0.010376,-0.0258255
374,3,0.0044632,-0.0212097
374,4,-0.00347137,-0.0130463
374,5,-0.0194168,-0.00476837
374,6,-0.0311279,-0.00679016
374,7,-0.0268936,-0.00156403
374,8,-0.0170898,0.00671387
374,9,-0.00862122,0.00526428
375,0,-0.00434875,0.000839233
375,1,-0.00858307,0.0044632
375,2,-0.0127792,0.0138855
375,3,0.00904083,0.00545502
375,4,0.0293732,-0.00659943
375,5,0.0309753,-0.00972748
375,6,0.0237656,-0.0101089
375,7,0.0177002,-0.0127792
375,8,0.018425,-0.018425
375,9,0.0223923,-0.030632
376,0,0.0260162,-0.0363922
376,1,0.0235748,-0.0281143
376,2,0.0173569,-0.0147629
376,3,0.0121689,-0.00484467
376,4,0.00160217,0.00137329
376,5,-0.0261307,0.00782013
376,6,-0.0482559,0.0109482
376,7,-0.0466156,0.0160217
376,8,-0.0330734,0.0171661
376,9,-0.0219727,0.0131607
377,0,-0.0153732,0.0117111
377,1,-0.0151825,0.0147247
377,2,-0.0175095,0.0224686
377,3,0.00671387,0.0153351
377,4,0.0344086,0.000991821
377,5,0.0389862,-0.00572205
377,6,0.0318146,-0.00419617
377,7,0.0252533,-0.00278473
377,8,0.0218582,-0.00648499
377,9,0.021553,-0.0159454
378,0,0.0196838,-0.0182343
378,1,0.0156403,-0.0120163
378,2,0.0119019,-0.00358582
378,3,0.0082016,0.00354767
378,4,0.00152588,0.0087738
378,5,-0.0173187,0.00759125
378,6,-0.0331497,0.00762939
378,7,-0.0313187,0.0163269
378,8,-0.0216675,0.0220871
378,9,-0.0177765,0.0202942
379,0,-0.0115967,0.0152588
379,1,-0.0124741,0.0187302
379,2,-0.0169754,0.0311279
379,3,0.00167847,0.0236893
379,4,0.0231171,0.00400543
379,5,0.0260544,-0.00442505
379,6,0.0162888,0.00217438
379,7,0.00919342,0.00617981
379,8,0.00980377,-0.0044632
379,9,0.0164413,-0.0259399
380,0,0.0198364,-0.0391006
380,1,0.0175095,-0.03582
380,2,0.0127029,-0.0246048
380,3,0.0111389,-0.0177002
380,4,0.00728607,-0.0112534
380,5,-0.0164413,-0.00465393
380,6,-0.0419235,-0.000495911
380,7,-0.0453568,0.00770569
380,8,-0.0323105,0.0115585
380,9,-0.0215912,0.00808716
381,0,-0.0190353,-0.000228882
381,1,-0.0198746,-0.000648499
381,2,-0.0278854,0.0122833
381,3,-0.00919342,0.00991821
381,4,0.0212479,-0.00747681
381,5,0.0294876,-0.0162888
381,6,0.0247574,-0.0144577
381,7,0.0178909,-0.0125504
381,8,0.0145721,-0.0149536
381,9,0.0159454,-0.0255203
382,0,0.0158691,-0.0325775
382,1,0.0128555,-0.0296021
382,2,0.00709534,-0.022316
382,3,0.00350952,-0.017128
382,4,0.00228882,-0.0121307
382,5,-0.0106812,-0.00549316
382,6,-0.0292206,0.00228882
382,7,-0.0324631,0.0120926
382,8,-0.022583,0.016861
382,9,-0.0137711,0.0160599
383,0,-0.00831604,0.0138092
383,1,-0.00705719,0.0144958
383,2,-0.0170517,0.0270081
383,3,-0.00644684,0.0257492
383,4,0.0194168,0.0110626
383,5,0.0276947,0.00469208
383,6,0.0193787,0.00511169
383,7,0.0149155,0.00282288
383,8,0.0159073,-0.00423431
383,9,0.0188065,-0.0156784
384,0,0.0212097,-0.0239563
384,1,0.0193024,-0.0210953
384,2,0.0130844,-0.0104141
384,3,0.00564575,-0.00114441
384,4,-0.000495911,0.00453949
384,5,-0.0209045,0.010376
384,6,-0.0460815,0.0146103
384,7,-0.0465393,0.0169373
384,8,-0.0289917,0.0160217
384,9,-0.0157166,0.0114822
385,0,-0.0124741,0.00984192
385,1,-0.0123596,0.00980377
385,2,-0.0159836,0.0140762
385,3,-0.00144958,0.00926971
385,4,0.0250244,-0.00087738
385,5,0.0318527,0.000343323
385,6,0.0245285,0.00602722
385,7,0.0192642,0.0069046
385,8,0.0192642,0.00156403
385,9,0.0215912,-0.00976562
386,0,0.0207901,-0.0167465
386,1,0.0188446,-0.0156021
386,2,0.0183868,-0.00873566
386,3,0.0169373,-0.00572205
386,4,0.0107574,-0.00392914
386,5,-0.00431061,0.00110626
386,6,-0.0217056,0.00492096
386,7,-0.0244904,0.00640869
386,8,-0.0136566,0.00640869
386,9,-0.00450134,0.00202179
387,0,-0.00156403,-0.00240326
387,1,-0.00766754,-0.00225067
387,2,-0.0178909,0.00892639
387,3,-0.00995636,0.010376
387,4,0.0127029,-0.00366211
387,5,0.0238419,-0.0145721
387,6,0.0175476,-0.0191879
387,7,0.0104523,-0.0194168
387,8,0.00812531,-0.0185776
387,9,0.0108719,-0.0237274
388,0,0.0146103,-0.0297165
388,1,0.0136948,-0.0247574
388,2,0.00892639,-0.0129318
388,3,0.00469208,-0.00335693
388,4,0.00278473,0.00377655
388,5,-0.0106049,0.0135803
388,6,-0.0349045,0.0207138
388,7,-0.0404358,0.0357056
388,8,-0.0286102,0.0497055
388,9,-0.0124359,0.0483704
389,0,-0.00869751,0.0370789
389,1,-0.00938416,0.0307083
389,2,-0.0191879,0.0352859
389,3,-0.0116348,0.0322342
389,4,0.0196838,0.0144958
389,5,0.0363922,0.00217438
389,6,0.0325775,0.00232697
389,7,0.0233078,0.00370026
389,8,0.0168991,7.62939e-05
389,9,0.0156021,-0.013504
390,0,0.0137711,-0.0233078
390,1,0.00766754,-0.0218582
390,2,0.00179291,-0.0161362
390,3,-0.00114441,-0.014267
390,4,-0.00293732,-0.0136566
390,5,-0.0146484,-0.00999451
390,6,-0.035553,-0.00835419
390,7,-0.0408936,-0.0056839
390,8,-0.0323868,0.00221252
390,9,-0.0176239,0.00526428
391,0,-0.00907898,0.00148773
391,1,-0.00518799,-0.0012207
391,2,-0.0126648,0.00541687
391,3,-0.00968933,0.0082016
391,4,0.0177002,-0.0069046
391,5,0.034523,-0.0186539
391,6,0.0287628,-0.021019
391,7,0.0163651,-0.0191498
391,8,0.0112152,-0.0188828
391,9,0.012207,-0.0265121
392,0,0.0167084,-0.0344086
392,1,0.0190735,-0.0305176
392,2,0.014534,-0.0199127
392,3,0.00869751,-0.0110245
392,4,0.00408173,-0.00576019
392,5,-0.0107574,0.00171661
392,6,-0.0391006,0.0069809
392,7,-0.0514603,0.013237
392,8,-0.0403976,0.0257492
392,9,-0.0215912,0.0284958
393,0,-0.0133514,0.0209808
393,1,-0.0141525,0.0162125
393,2,-0.0177002,0.0221634
393,3,-0.0130081,0.0259018
393,4,0.0160599,0.00892639
393,5,0.0348663,-0.00747681
393,6,0.0314713,-0.0082016
393,7,0.0222015,-0.0019455
393,8,0.0182724,0.00137329
393,9,0.0203705,-0.00865936
394,0,0.0218201,-0.0214386
394,1,0.0193024,-0.024147
394,2,0.0169373,-0.0207138
394,3,0.0140381,-0.0149155
394,4,0.0120163,-0.01091
394,5,0.00293732,-0.00701904
394,6,-0.0207901,-0.00350952
394,7,-0.0328827,0
394,8,-0.0249481,0.00827789
394,9,-0.0115204,0.015831
395,0,-0.00785828,0.0204849
395,1,-0.0094986,0.0213242
395,2,-0.0151443,0.0209045
395,3,-0.0133896,0.0175858
395,4,0.0128174,0.00179291
395,5,0.0291443,-0.0130463
395,6,0.0274658,-0.0179672
395,7,0.0181961,-0.0173569
395,8,0.0135422,-0.0171661
395,9,0.0143433,-0.0257111
396,0,0.0203323,-0.0373459
396,1,0.0217438,-0.0380325
396,2,0.0159836,-0.0289536
396,3,0.0111389,-0.0180435
396,4,0.00904083,-0.0113297
396,5,-0.00358582,-0.00167847
396,6,-0.0332642,0.0043869
396,7,-0.0521088,0.0115204
396,8,-0.0461578,0.021553
396,9,-0.0282288,0.0207138
397,0,-0.0176239,0.0138092
397,1,-0.0160599,0.00743866
397,2,-0.0165558,0.00839233
397,3,-0.0150299,0.0136185
397,4,0.0122833,0.00537872
397,5,0.0372696,-0.00797272
397,6,0.0361633,-0.0123978
397,7,0.0242996,-0.00514984
397,8,0.0167084,-7.62939e-05
397,9,0.0172043,-0.00835419
398,0,0.0174713,-0.0231934
398,1,0.0131989,-0.0242996
398,2,0.00682831,-0.0170135
398,3,0.00137329,-0.0117111
398,4,-0.00240326,-0.00537872
398,5,-0.0133896,0.0018692
398,6,-0.0349808,0.0030899
398,7,-0.0497818,-0.000686646
398,8,-0.0467682,0.0088501
398,9,-0.0354767,0.0157928
399,0,-0.0222778,0.0130081
399,1,-0.0130463,0.0094986
399,2,-0.0147629,0.0174332
399,3,-0.0149536,0.0305939
399,4,0.00717163,0.0248337
399,5,0.0299454,0.00839233
399,6,0.0315094,-0.00038147
399,7,0.0241852,-0.000686646
399,8,0.017662,0.00110626
399,9,0.0120163,-0.0044632
400,0,0.0148773,-0.0189972
400,1,0.0185394,-0.0265884
400,2,0.0168991,-0.0185013
400,3,0.0118637,-0.00572205
400,4,0.00640869,0.0125122
400,5,-0.00389099,0.0329208
400,6,-0.0275421,0.046463
400,7,-0.0441742,0.0548935
400,8,-0.0359344,0.059166
400,9,-0.0178146,0.0540543
401,0,-0.00556946,0.042572
401,1,0.00217438,0.0315094
401,2,0.001297,0.0294113
401,3,-0.00457764,0.0353241
401,4,0.0152588,0.0253296
401,5,0.0421906,0.00999451
401,6,0.0467682,0.00179291
401,7,0.0421906,-0.000419617
401,8,0.0351334,-0.0038147
401,9,0.0320435,-0.0180817
402,0,0.0296402,-0.0380325
402,1,0.0233841,-0.0466919
402,2,0.0163651,-0.0433731
402,3,0.00961304,-0.037384
402,4,0.00255585,-0.0350571
402,5,-0.00629425,-0.032959
402,6,-0.0256729,-0.0313568
402,7,-0.0405502,-0.0318527
402,8,-0.0371552,-0.0191498
402,9,-0.0234222,-0.00957489
403,0,-0.0168228,-0.0136948
403,1,-0.0167465,-0.0216675
403,2,-0.0243759,-0.0239944
403,3,-0.0322723,-0.0127029
403,4,-0.0109482,-0.0168228
403,5,0.0137329,-0.0305176
403,6,0.0186157,-0.0371933
403,7,0.0114822,-0.0335693
403,8,0.0069809,-0.0318527
403,9,0.00537872,-0.0368118
404,0,0.00816345,-0.0497055
404,1,0.0111771,-0.0546646
404,2,0.00926971,-0.0435257
404,3,0.00629425,-0.0280762
404,4,0.00354767,-0.013504
404,5,-0.00171661,-0.00202179
404,6,-0.0252533,-0.000152588
404,7,-0.0458145,0.00175476
404,8,-0.0433731,0.0205231
404,9,-0.0255203,0.0323105
405,0,-0.0120926,0.0241852
405,1,-0.0100327,0.0128555
405,2,-0.0139236,0.0143433
405,3,-0.0237656,0.0287247
405,4,-0.00358582,0.0239563
405,5,0.0306702,0.00465393
405,6,0.0359726,-0.00442505
405,7,0.0258636,-0.00488281
405,8,0.0171661,-0.00236511
405,9,0.0163269,-0.00377655
406,0,0.0180817,-0.0182343
406,1,0.0166702,-0.027504
406,2,0.0118637,-0.0239944
406,3,0.00736237,-0.0121307
406,4,0.00583649,0.000610352
406,5,0.00350952,0.0143814
406,6,-0.00984192,0.0173569
406,7,-0.023613,0.00736237
406,8,-0.0249481,0.0168228
406,9,-0.013504,0.0343704
407,0,-0.00247955,0.0366592
407,1,0.00301361,0.0305176
407,2,-0.00213623,0.0403976
407,3,-0.0172424,0.0750732
407,4,-0.00358582,0.0822067
407,5,0.0230408,0.0539398
407,6,0.0299835,0.0266647
407,7,0.0201797,0.0146484
407,8,0.00972748,0.00835419
407,9,0.00526428,-0.00389099
408,0,0.0056076,-0.0273132
408,1,0.00526428,-0.045433
408,2,0.00328064,-0.0447845
408,3,0.000534058,-0.0307846
408,4,0.000534058,-0.0166321
408,5,-0.00167847,-0.00606537
408,6,-0.0235748,-0.0143051
408,7,-0.0508881,-0.0275803
408,8,-0.0566864,-0.020256
408,9,-0.0411224,-0.00843048
409,0,-0.029068,-0.0082016
409,1,-0.0256729,-0.0117874
409,2,-0.0214767,-0.0112915
409,3,-0.0226593,-0.00385284
409,4,-0.00537872,-0.00934601
409,5,0.0275421,-0.0260544
409,6,0.0428009,-0.0326157
409,7,0.0432587,-0.0266647
409,8,0.0401306,-0.0191498
409,9,0.0370026,-0.0160599
410,0,0.0338364,-0.0223541
410,1,0.0272369,-0.0249863
410,2,0.0183868,-0.0218201
410,3,0.00968933,-0.0157547
410,4,0.00343323,-0.00896454
410,5,-0.00114441,-0.00038147
410,6,-0.0167465,0.00564575
410,7,-0.0373459,-0.000228882
410,8,-0.0408173,0.00770569
410,9,-0.0276947,0.0279236
411,0,-0.011673,0.03479
411,1,-0.0018692,0.0267029
411,2,0.00038147,0.0191879
411,3,-0.00705719,0.0304794
411,4,0.0075531,0.0331497
411,5,0.0422287,0.0209045
411,6,0.0656509,0.0157928
411,7,0.0714111,0.0201035
411,8,0.0669098,0.026207
411,9,0.0572968,0.0254822
412,0,0.0453568,0.0119781
412,1,0.03582,0.00144958
412,2,0.0287628,0.00839233
412,3,0.0244522,0.025444
412,4,0.0203705,0.0380707
412,5,0.0151443,0.0445557
412,6,-0.0134659,0.0540161
412,7,-0.0520325,0.0541687
412,8,-0.0676346,0.0547791
412,9,-0.0647736,0.062561
413,0,-0.0568771,0.0719833
413,1,-0.0510788,0.0667572
413,2,-0.0481415,0.0461197
413,3,-0.0501251,0.0335312
413,4,-0.0351715,0.031929
413,5,-0.00267029,0.022049
413,6,0.0135803,0.00404358
413,7,0.00751495,-0.0173187
413,8,-0.00144958,-0.0337219
413,9,-0.00473022,-0.0476456
414,0,-0.00652313,-0.0704956
414,1,-0.00862122,-0.0882721
414,2,-0.0133133,-0.091095
414,3,-0.0143433,-0.0877762
414,4,-0.0137711,-0.0850296
414,5,-0.0143814,-0.0822067
414,6,-0.0268173,-0.0853729
414,7,-0.0440216,-0.107231
414,8,-0.045166,-0.0953293
414,9,-0.034256,-0.0698471
415,0,-0.0228882,-0.066185
415,1,-0.0158691,-0.0734711
415,2,-0.0147247,-0.0584793
415,3,-0.0273895,-0.027771
415,4,-0.0180817,-0.0172806
415,5,0.0161362,-0.0325012
415,6,0.0365067,-0.0444794
415,7,0.0332642,-0.0433731
415,8,0.0240707,-0.0405884
415,9,0.0209427,-0.0411987
416,0,0.0231934,-0.0513077
416,1,0.0244904,-0.0584793
416,2,0.0236511,-0.0514984
416,3,0.0198364,-0.0357437
416,4,0.0179291,-0.0216293
416,5,0.0159073,-0.0082016
416,6,-0.000190735,0.0069046
416,7,-0.0248337,0.00782013
416,8,-0.0350952,0.0130844
416,9,-0.0254822,0.0328064
417,0,-0.0137329,0.0448608
417,1,-0.0043869,0.0424957
417,2,0.0031662,0.0403976
417,3,-0.000991821,0.0501251
417,4,0.00038147,0.0585938
417,5,0.0286102,0.0486755
417,6,0.0464249,0.0381851
417,7,0.0432587,0.0368881
417,8,0.0338745,0.0417328
417,9,0.0287247,0.0415802
418,0,0.0288773,0.0316238
418,1,0.0255203,0.0209045
418,2,0.0201035,0.0256729
418,3,0.0148392,0.0362396
418,4,0.0104141,0.0418091
418,5,0.00724792,0.0466537
418,6,-0.00652313,0.053215
418,7,-0.0287247,0.0559616
418,8,-0.0372314,0.0523758
418,9,-0.0249481,0.0489807
419,0,-0.00713348,0.0395203
419,1,-0.00114441,0.0281906
419,2,-0.000762939,0.0198364
419,3,-0.00762939,0.0187302
419,4,-0.00652313,0.0218582
419,5,0.0184631,0.0111389
419,6,0.0321198,-0.00408173
419,7,0.0265884,-0.00743866
419,8,0.0181961,-0.00740051
419,9,0.0114822,-0.00980377
420,0,0.0114441,-0.0225449
420,1,0.0120544,-0.0372314
420,2,0.0112915,-0.0365448
420,3,0.00709534,-0.0210953
420,4,0.00286102,-0.00358582
420,5,-0.000495911,0.00587463
420,6,-0.0151443,0.00896454
420,7,-0.0434494,-0.0019455
420,8,-0.0556946,0.000686646
420,9,-0.0481415,0.0205231
421,0,-0.0341034,0.0249863
421,1,-0.0243378,0.0149536
421,2,-0.0177383,0.0037384
421,3,-0.0196457,0.000839233
421,4,-0.0215149,0.00312805
421,5,0.0038147,-0.00621796
421,6,0.0257874,-0.0137329
421,7,0.026741,-0.0102997
421,8,0.0214767,-0.00667572
421,9,0.0153732,-0.00228882
422,0,0.0102234,-0.00606537
422,1,0.0082016,-0.0196457
422,2,0.00534058,-0.0230789
422,3,0.0018692,-0.0194931
422,4,-0.000572205,-0.017662
422,5,-0.00297546,-0.0151062
422,6,-0.0087738,-0.0114822
422,7,-0.028038,-0.0056076
422,8,-0.0404739,-0.00343323
422,9,-0.0337601,0.00621796
423,0,-0.0192261,0.0164795
423,1,-0.0112915,0.0146484
423,2,-0.00766754,0.00392914
423,3,-0.0113678,0.00217438
423,4,-0.00640869,0.00640869
423,5,0.0180817,-0.00293732
423,6,0.0356674,-0.0167465
423,7,0.0320435,-0.020256
423,8,0.0244904,-0.0159073
423,9,0.0205994,-0.0143814
424,0,0.0196838,-0.0238419
424,1,0.0195694,-0.0388718
424,2,0.0190353,-0.0400925
424,3,0.0164795,-0.0270844
424,4,0.0154114,-0.0121689
424,5,0.0120163,-0.00179291
424,6,0.00320435,0.00579834
424,7,-0.0246429,-0.00480652
424,8,-0.0413895,-0.0121689
424,9,-0.0333023,0.00659943
425,0,-0.0166321,0.0339127
425,1,-0.0100327,0.0505447
425,2,-0.0114059,0.0452805
425,3,-0.0135803,0.033226
425,4,-0.0153351,0.0329971
425,5,0.0082016,0.0231171
425,6,0.0306702,0.0100708
425,7,0.0306702,0.00324249
425,8,0.0211716,-0.00038147
425,9,0.015831,-0.00415802
426,0,0.0138092,-0.01297
426,1,0.0111389,-0.0271988
426,2,0.00606537,-0.0307846
426,3,0.0018692,-0.0237656
426,4,0.000267029,-0.0138092
426,5,0.000267029,-0.00370026
426,6,-0.00663757,0.000648499
426,7,-0.0239944,-0.0030899
426,8,-0.0358963,0.000991821
426,9,-0.031662,0.0105286
427,0,-0.0197601,0.012207
427,1,-0.0133514,0.00442505
427,2,-0.00988007,-0.00450134
427,3,-0.0125504,0.00167847
427,4,-0.0136948,0.0255585
427,5,0.00556946,0.0296402
427,6,0.02388,0.0154877
427,7,0.0251389,0.00621796
427,8,0.0196838,3.8147e-05
427,9,0.0150681,-0.00366211
428,0,0.0114822,-0.014534
428,1,0.0119019,-0.0328064
428,2,0.0129318,-0.0410461
428,3,0.0108337,-0.0366211
