,,Elo:LAnkleAngles_M,,,Elo:LHipAngles_M,,,Elo:LKneeAngles_M,,,Elo:LPelvisAngles_M,,,Elo:RAnkleAngles_M,,,Elo:RHipAngles_M,,,Elo:RKneeAngles_M,,,Elo:RPelvisAngles_M,,,
1,0,8.80076,-2.55043,9.56569,46.7914,0.0181839,-10.6719,42.4748,-6.44375,-15.2773,23.9797,-0.778252,-6.25445,10.4651,-0.565031,5.34965,23.0537,2.29137,-3.04905,8.06916,4.5799,-12.353,23.9797,0.778252,6.25445
2,0,8.39243,-2.56206,9.60732,46.7548,0.165326,-10.4299,40.6833,-6.15491,-15.7399,24.0303,-0.674656,-6.19063,10.5978,-0.588189,5.43623,22.7098,2.26699,-2.87793,7.84757,4.56288,-12.4863,24.0303,0.674656,6.19063
3,0,7.99999,-2.57024,9.6366,46.7215,0.301257,-10.1664,38.9232,-5.85904,-16.1612,24.0763,-0.575792,-6.12611,10.7397,-0.60418,5.496,22.3663,2.24522,-2.70032,7.63898,4.54782,-12.6038,24.0763,0.575792,6.12611
4,0,7.6248,-2.57485,9.6531,46.6944,0.425717,-9.87929,37.1941,-5.55631,-16.541,24.1209,-0.482214,-6.0613,10.8904,-0.612777,5.52813,22.0266,2.22654,-2.51722,7.44322,4.53387,-12.704,24.1209,0.482214,6.0613
5,0,7.26857,-2.57547,9.65532,46.673,0.538126,-9.5666,35.4961,-5.24577,-16.8805,24.1634,-0.393805,-5.99543,11.0497,-0.614181,5.53338,21.6899,2.21099,-2.32604,7.2599,4.52191,-12.7898,24.1634,0.393805,5.99543
6,0,6.93111,-2.57193,9.64265,46.6572,0.639238,-9.22588,33.8285,-4.92832,-17.1807,24.2043,-0.310453,-5.92934,11.218,-0.608114,5.51071,21.3565,2.1982,-2.12968,7.08944,4.5113,-12.8576,24.2043,0.310453,5.92934
7,0,6.61439,-2.56294,9.6105,46.6463,0.727719,-8.85568,32.1906,-4.60352,-17.4394,24.2432,-0.232519,-5.86204,11.3949,-0.595047,5.46187,21.0262,2.18904,-1.92738,6.9318,4.50201,-12.9097,24.2432,0.232519,5.86204
8,0,6.31856,-2.54968,9.56303,46.6394,0.804301,-8.45481,30.5829,-4.27273,-17.6609,24.2789,-0.159606,-5.79477,11.5797,-0.57477,5.38607,20.6972,2.18263,-1.71934,6.78616,4.49443,-12.9454,24.2789,0.159606,5.79477
9,0,6.04399,-2.53173,9.49874,46.6377,0.868255,-8.02276,29.0046,-3.93751,-17.8449,24.3129,-0.0920244,-5.72656,11.7731,-0.547869,5.28547,20.3713,2.17963,-1.50708,6.65334,4.48789,-12.9646,24.3129,0.0920244,5.72656
10,0,5.79288,-2.50883,9.41671,46.6409,0.920321,-7.55997,27.4563,-3.59971,-17.9905,24.345,-0.0293944,-5.6584,11.9746,-0.514919,5.16221,20.0483,2.17928,-1.29197,6.53317,4.48244,-12.9683,24.345,0.0293944,5.6584
11,0,5.56424,-2.48234,9.32177,46.6494,0.959227,-7.06869,25.939,-3.26154,-18.1029,24.3749,0.0281632,-5.58945,12.1836,-0.475855,5.01601,19.7271,2.18202,-1.0742,6.42479,4.47812,-12.9556,24.3749,-0.0281632,5.58945
12,0,5.35939,-2.45291,9.2162,46.6632,0.985626,-6.54982,24.453,-2.92582,-18.1827,24.4028,0.0802133,-5.52057,12.4001,-0.43116,4.84866,19.408,2.18781,-0.856374,6.32856,4.47484,-12.9261,24.4028,-0.0802133,5.52057
13,0,5.18017,-2.42009,9.09842,46.6826,0.999764,-6.006,23.0007,-2.59451,-18.2291,24.4287,0.127529,-5.45184,12.6233,-0.381825,4.66383,19.0905,2.19584,-0.640111,6.24355,4.47262,-12.8817,24.4287,-0.127529,5.45184
14,0,5.02638,-2.38535,8.97366,46.7074,1.0016,-5.44196,21.584,-2.27113,-18.2448,24.4521,0.170249,-5.38301,12.8529,-0.328665,4.46456,18.7739,2.20646,-0.427824,6.17006,4.47062,-12.8226,24.4521,-0.170249,5.38301
15,0,4.89922,-2.34984,8.84602,46.7392,0.991004,-4.86093,20.2054,-1.95769,-18.2327,24.4744,0.207605,-5.31489,13.0881,-0.272326,4.25325,18.4592,2.21965,-0.221587,6.10698,4.46921,-12.7495,24.4744,-0.207605,5.31489
16,0,4.79831,-2.31341,8.71501,46.7767,0.968665,-4.2686,18.8684,-1.65689,-18.1933,24.4943,0.240376,-5.24725,13.3288,-0.213743,4.0334,18.1449,2.23525,-0.0234731,6.05484,4.46742,-12.6636,24.4943,-0.240376,5.24725
17,0,4.72401,-2.27765,8.58631,46.8221,0.934957,-3.67017,17.5765,-1.37053,-18.1296,24.5135,0.268303,-5.18084,13.5735,-0.154582,3.81125,17.8324,2.25288,0.162468,6.01273,4.46553,-12.5677,24.5135,-0.268303,5.18084
18,0,4.67672,-2.24293,8.46124,46.8735,0.891148,-3.07211,16.3334,-1.10119,-18.0431,24.5308,0.292054,-5.1156,13.8216,-0.095447,3.58908,17.52,2.27246,0.33536,5.97999,4.46272,-12.4625,24.5308,-0.292054,5.1156
19,0,4.65547,-2.2098,8.34186,46.931,0.837726,-2.48021,15.1438,-0.849652,-17.9359,24.546,0.311442,-5.05208,14.0723,-0.0375667,3.37152,17.2071,2.29396,0.492863,5.95618,4.45869,-12.3513,24.546,-0.311442,5.05208
20,0,4.65847,-2.17913,8.23126,46.9956,0.775848,-1.90107,14.0117,-0.616967,-17.8104,24.5608,0.326327,-4.99075,14.3249,0.0173845,3.16487,16.8957,2.31759,0.631599,5.94144,4.45292,-12.2373,24.5608,-0.326327,4.99075
21,0,4.6846,-2.15135,8.13101,47.067,0.706588,-1.34057,12.942,-0.40358,-17.671,24.5751,0.337146,-4.93131,14.5782,0.0685324,2.97245,16.5853,2.34325,0.750598,5.93529,4.44482,-12.1227,24.5751,-0.337146,4.93131
22,0,4.73185,-2.12679,8.04234,47.1408,0.632112,-0.804016,11.9386,-0.209588,-17.5202,24.5857,0.344546,-4.87467,14.8316,0.115093,2.79723,16.2725,2.37022,0.84824,5.93758,4.4345,-12.0101,24.5857,-0.344546,4.87467
23,0,4.79703,-2.10603,7.96737,47.2207,0.553992,-0.29738,11.0056,-0.0348414,-17.3621,24.5971,0.348362,-4.82102,15.0838,0.155061,2.64677,15.9622,2.39877,0.922148,5.94841,4.42079,-11.904,24.5971,-0.348362,4.82102
24,0,4.87658,-2.08992,7.90919,47.3025,0.473593,0.174593,10.147,0.121403,-17.2018,24.606,0.348767,-4.77055,15.3342,0.188105,2.52235,15.6516,2.42902,0.971513,5.96852,4.40367,-11.8064,24.606,-0.348767,4.77055
25,0,4.96698,-2.07821,7.86685,47.3876,0.393385,0.608191,9.36598,0.259097,-17.0423,24.6153,0.345964,-4.72347,15.5822,0.213275,2.42756,15.3436,2.46086,0.996101,5.99785,4.38215,-11.7198,24.6153,-0.345964,4.72347
26,0,5.06413,-2.07183,7.84382,47.472,0.315514,0.999719,8.66569,0.379316,-16.8892,24.6221,0.340553,-4.68021,15.8269,0.230019,2.3645,15.0361,2.49382,0.994588,6.03783,4.35633,-11.6463,24.6221,-0.340553,4.68021
27,0,5.1638,-2.07079,7.84006,47.557,0.241564,1.34575,8.04827,0.482438,-16.7458,24.629,0.332306,-4.64077,16.0681,0.238417,2.33286,14.7323,2.52803,0.967321,6.08944,4.32596,-11.5862,24.629,-0.332306,4.64077
28,0,5.26018,-2.07531,7.85638,47.6402,0.173984,1.64586,7.5155,0.569394,-16.6176,24.635,0.321972,-4.60547,16.3053,0.237835,2.33506,14.4324,2.56275,0.914462,6.15448,4.29052,-11.5415,24.635,-0.321972,4.60547
29,0,5.34959,-2.08522,7.89218,47.7198,0.114312,1.89795,7.06912,0.64049,-16.5054,24.6396,0.30939,-4.57423,16.5377,0.229308,2.36718,14.1363,2.59845,0.838099,6.23391,4.24988,-11.5105,24.6396,-0.30939,4.57423
30,0,5.42485,-2.10253,7.95474,47.7949,0.0650609,2.10153,6.70835,0.695195,-16.4201,24.6424,0.295237,-4.54734,16.766,0.212765,2.42949,13.8454,2.63391,0.738202,6.33076,4.20461,-11.4943,24.6424,-0.295237,4.54734
31,0,5.48424,-2.12364,8.03098,47.8643,0.0275205,2.25662,6.43578,0.734218,-16.3501,24.644,0.279803,-4.52468,16.9895,0.189268,2.51797,13.5612,2.6691,0.616142,6.44736,4.15363,-11.4884,24.644,-0.279803,4.52468
32,0,5.52099,-2.1505,8.12796,47.9277,0.00328383,2.36327,6.24896,0.756861,-16.3062,24.6442,0.2631,-4.50626,17.2078,0.159905,2.62854,13.2847,2.70383,0.475089,6.58562,4.09724,-11.4922,24.6442,-0.2631,4.50626
33,0,5.52996,-2.18419,8.24951,47.984,-0.00642124,2.42171,6.14597,0.762645,-16.2929,24.6422,0.246066,-4.49196,17.4217,0.12613,2.75569,13.0167,2.7369,0.315477,6.74929,4.03566,-11.5002,24.6422,-0.246066,4.49196
34,0,5.50653,-2.22189,8.38545,48.0336,-0.0016592,2.43497,6.12573,0.752011,-16.3032,24.6393,0.228039,-4.48128,17.6298,0.0899049,2.89203,12.7591,2.76853,0.142136,6.93994,3.96942,-11.508,24.6393,-0.228039,4.48128
35,0,5.44985,-2.26305,8.53374,48.0748,0.0188065,2.40223,6.18773,0.723467,-16.3319,24.633,0.209544,-4.47461,17.8332,0.0529115,3.03123,12.5113,2.7982,-0.0434718,7.16171,3.89862,-11.5117,24.633,-0.209544,4.47461
36,0,5.35392,-2.30734,8.69318,48.1087,0.055226,2.32767,6.32633,0.677523,-16.3827,24.6247,0.191452,-4.47161,18.0304,0.016769,3.16719,12.2758,2.82469,-0.238193,7.4169,3.82312,-11.5063,24.6247,-0.191452,4.47161
37,0,5.21644,-2.35482,8.86395,48.1361,0.106518,2.21082,6.53859,0.613298,-16.4519,24.6146,0.173181,-4.47178,18.2214,-0.0164455,3.2921,12.0539,2.84833,-0.439245,7.70898,3.74339,-11.4852,24.6146,-0.173181,4.47178
38,0,5.03908,-2.402,9.03347,48.1554,0.172083,2.05443,6.82234,0.531226,-16.5287,24.6003,0.155782,-4.47444,18.4052,-0.0449385,3.39924,11.8444,2.86795,-0.643534,8.04055,3.66031,-11.4449,24.6003,-0.155782,4.47444
39,0,4.81852,-2.44964,9.20448,48.1685,0.251555,1.8607,7.17042,0.430988,-16.6126,24.5834,0.139136,-4.48015,18.5802,-0.0669748,3.48207,11.6497,2.88309,-0.848192,8.4138,3.57419,-11.3802,24.5834,-0.139136,4.48015
40,0,4.56024,-2.4943,9.36464,48.1764,0.342447,1.63305,7.58083,0.313818,-16.6904,24.5639,0.123204,-4.48782,18.745,-0.081538,3.53681,11.471,2.89383,-1.05105,8.83152,3.48521,-11.2883,24.5639,-0.123204,4.48782
41,0,4.26269,-2.5376,9.51976,48.1796,0.442986,1.37191,8.04576,0.179971,-16.764,24.5415,0.108235,-4.49704,18.8971,-0.0871348,3.55785,11.3082,2.8997,-1.24912,9.29537,3.39448,-11.1657,24.5415,-0.108235,4.49704
42,0,3.93287,-2.57718,9.66145,48.1775,0.551877,1.08143,8.5601,0.0307432,-16.824,24.5151,0.0947434,-4.50799,19.0348,-0.0830999,3.54268,11.1616,2.89979,-1.44147,9.80776,3.30277,-11.0105,24.5151,-0.0947434,4.50799
43,0,3.57738,-2.6109,9.78205,48.1713,0.666026,0.763609,9.11938,-0.132192,-16.8572,24.4853,0.082753,-4.51943,19.1542,-0.0689411,3.48946,11.0317,2.89441,-1.62467,10.3689,3.21052,-10.8226,24.4853,-0.082753,4.51943
44,0,3.20163,-2.64016,9.88662,48.1594,0.78324,0.421843,9.71497,-0.307072,-16.8655,24.4502,0.0723041,-4.5315,19.2515,-0.0450679,3.39972,10.9177,2.88329,-1.79957,10.9804,3.11878,-10.603,24.4502,-0.0723041,4.5315
45,0,2.81491,-2.66324,9.96908,48.1443,0.901286,0.0587646,10.3415,-0.492684,-16.8397,24.4121,0.0633134,-4.5435,19.3222,-0.011795,3.27462,10.8217,2.86647,-1.96474,11.642,3.02788,-10.353,24.4121,-0.0633134,4.5435
46,0,2.42879,-2.67885,10.0248,48.1256,1.01775,-0.32269,10.9946,-0.685589,-16.7698,24.3709,0.056534,-4.555,19.361,0.0295565,3.11909,10.7442,2.84314,-2.12105,12.354,2.939,-10.0767,24.3709,-0.056534,4.555
47,0,2.05163,-2.68725,10.0548,48.1013,1.13078,-0.717208,11.6658,-0.884361,-16.6557,24.3249,0.0516425,-4.56572,19.3614,0.0783109,2.93566,10.6834,2.8138,-2.26735,13.1149,2.85317,-9.77822,24.3249,-0.0516425,4.56572
48,0,1.69303,-2.6889,10.0607,48.0715,1.23794,-1.1229,12.3493,-1.08626,-16.496,24.2753,0.0486348,-4.57497,19.3168,0.131776,2.73443,10.6413,2.77873,-2.40646,13.9244,2.76996,-9.46363,24.2753,-0.0486348,4.57497
49,0,1.36294,-2.68276,10.0388,48.0356,1.33838,-1.53297,13.0385,-1.28874,-16.2876,24.2227,0.0477818,-4.58256,19.2194,0.187932,2.523,10.6182,2.73752,-2.54038,14.7807,2.69013,-9.13968,24.2227,-0.0477818,4.58256
50,0,1.06944,-2.66929,9.99067,47.9924,1.43078,-1.94495,13.7274,-1.48964,-16.0318,24.1673,0.0492617,-4.58807,19.0614,0.245118,2.30763,10.6142,2.6905,-2.67025,15.6812,2.61391,-8.81137,24.1673,-0.0492617,4.58807
51,0,0.8206,-2.64921,9.91894,47.9388,1.51408,-2.35322,14.4101,-1.6866,-15.7308,24.1078,0.0525017,-4.5912,18.8322,0.300035,2.10073,10.6288,2.63835,-2.79942,16.624,2.54118,-8.48906,24.1078,-0.0525017,4.5912
52,0,0.620377,-2.62284,9.82474,47.8726,1.58818,-2.75366,15.0802,-1.87722,-15.3901,24.044,0.058159,-4.59166,18.5238,0.349946,1.91264,10.6615,2.58057,-2.93171,17.6063,2.47126,-8.17969,24.044,-0.058159,4.59166
53,0,0.474042,-2.59036,9.70861,47.7965,1.65307,-3.14206,15.7331,-2.05927,-15.0148,23.9806,0.066148,-4.5888,18.1248,0.392979,1.75044,10.717,2.51729,-3.06882,18.6246,2.40402,-7.8888,23.9806,-0.066148,4.5888
54,0,0.383123,-2.55349,9.57665,47.7044,1.70917,-3.51124,16.3628,-2.23108,-14.6153,23.914,0.0758817,-4.58269,17.6276,0.425759,1.62686,10.7924,2.44965,-3.21607,19.6765,2.33734,-7.62565,23.914,-0.0758817,4.58269
55,0,0.348153,-2.51195,9.4279,47.5947,1.75744,-3.85936,16.9651,-2.39041,-14.1969,23.8447,0.0880807,-4.57342,17.0219,0.44661,1.54825,10.8877,2.37655,-3.37583,20.758,2.27138,-7.39502,23.8447,-0.0880807,4.57342
56,0,0.368493,-2.46783,9.26971,47.4698,1.79825,-4.18262,17.5358,-2.53636,-13.7719,23.777,0.101916,-4.56023,16.2997,0.453258,1.52318,11.008,2.29891,-3.55299,21.8666,2.20308,-7.20127,23.777,-0.101916,4.56023
57,0,0.441162,-2.42152,9.10357,47.3238,1.83332,-4.47598,18.0711,-2.6669,-13.3497,23.707,0.11803,-4.54348,15.4562,0.444478,1.55629,11.1496,2.21613,-3.75106,22.9993,2.13112,-7.04669,23.707,-0.11803,4.54348
58,0,0.56323,-2.37531,8.93757,47.159,1.86348,-4.73835,18.5679,-2.78176,-12.9431,23.6386,0.136072,-4.52262,14.4868,0.418573,1.65395,11.317,2.128,-3.97319,24.153,2.05344,-6.93644,23.6386,-0.136072,4.52262
59,0,0.729978,-2.3289,8.77074,46.9724,1.88957,-4.96716,19.0236,-2.8792,-12.5571,23.5707,0.155713,-4.49795,13.3907,0.375596,1.81596,11.5094,2.03465,-4.22377,25.3254,1.9673,-6.86732,23.5707,-0.155713,4.49795
60,0,0.936766,-2.28505,8.61293,46.7646,1.91362,-5.16191,19.4367,-2.96014,-12.2054,23.5042,0.177305,-4.46963,12.1717,0.315847,2.04114,11.7282,1.93544,-4.50465,26.5143,1.87037,-6.83873,23.5042,-0.177305,4.46963
61,0,1.17948,-2.24372,8.4641,46.5348,1.93583,-5.32218,19.8063,-3.02317,-11.8911,23.4392,0.20071,-4.43734,10.8371,0.239403,2.32915,11.9742,1.82985,-4.8188,27.7175,1.76021,-6.84975,23.4392,-0.20071,4.43734
62,0,1.45192,-2.20556,8.32658,46.285,1.95695,-5.44699,20.1313,-3.06862,-11.6204,23.3783,0.225076,-4.40129,9.39942,0.148075,2.67307,12.2506,1.71791,-5.16888,28.9338,1.634,-6.89407,23.3783,-0.225076,4.40129
63,0,1.74854,-2.17184,8.20495,46.0131,1.97847,-5.53855,20.4123,-3.09741,-11.3981,23.3188,0.251084,-4.36216,7.87524,0.043697,3.06589,12.5552,1.59859,-5.55598,30.1606,1.48968,-6.96941,23.3188,-0.251084,4.36216
64,0,2.06646,-2.14178,8.09646,45.722,2.00015,-5.59893,20.6506,-3.11017,-11.221,23.2633,0.278275,-4.31933,6.28759,-0.0714745,3.49899,12.8912,1.4713,-5.98178,31.3976,1.32472,-7.06919,23.2633,-0.278275,4.31933
65,0,2.39881,-2.11611,8.00378,45.4124,2.02224,-5.62866,20.8468,-3.10675,-11.0934,23.2115,0.306472,-4.27321,4.66274,-0.194215,3.96009,13.2587,1.33621,-6.44612,32.643,1.13639,-7.18706,23.2115,-0.306472,4.27321
66,0,2.74273,-2.09383,7.92331,45.0869,2.04515,-5.63173,21.0038,-3.0891,-11.008,23.1645,0.335624,-4.22435,3.03077,-0.321902,4.4392,13.6588,1.19232,-6.949,33.8948,0.923392,-7.31875,23.1645,-0.335624,4.22435
67,0,3.09355,-2.07475,7.85436,44.7483,2.06845,-5.61207,21.1243,-3.0587,-10.9622,23.1231,0.365459,-4.17262,1.4235,-0.451387,4.92441,14.0926,1.03957,-7.48866,35.1519,0.684345,-7.46037,23.1231,-0.365459,4.17262
68,0,3.44883,-2.05847,7.7955,44.3976,2.09109,-5.57038,21.2106,-3.01547,-10.9505,23.0868,0.395266,-4.11852,-0.125922,-0.57951,5.40379,14.5595,0.878519,-8.0644,36.412,0.417863,-7.60626,23.0868,-0.395266,4.11852
69,0,3.8048,-2.04376,7.74232,44.0371,2.11314,-5.5138,21.2668,-2.96231,-10.9652,23.0552,0.425639,-4.06199,-1.5852,-0.703523,5.86705,15.0581,0.708589,-8.67246,37.6725,0.123962,-7.75371,23.0552,-0.425639,4.06199
70,0,4.15898,-2.02951,7.69078,43.6696,2.13374,-5.44427,21.296,-2.89965,-10.9979,23.029,0.456021,-4.00363,-2.92494,-0.821065,6.3054,15.5888,0.530305,-9.30956,38.931,-0.197084,-7.89891,23.029,-0.456021,4.00363
71,0,4.50976,-2.01568,7.64073,43.2994,2.1515,-5.36529,21.302,-2.82871,-11.0441,23.0097,0.485665,-3.94371,-4.11906,-0.930442,6.71261,16.1516,0.345129,-9.97055,40.1834,-0.543788,-8.04312,23.0097,-0.485665,3.94371
72,0,4.85598,-2.00132,7.5888,42.9267,2.1657,-5.28229,21.2882,-2.75157,-11.0947,22.9949,0.514845,-3.88199,-5.14624,-1.02974,7.08171,16.7429,0.153796,-10.6509,41.4263,-0.915237,-8.18155,22.9949,-0.514845,3.88199
73,0,5.19472,-1.98653,7.53525,42.5541,2.17604,-5.19757,21.2583,-2.66956,-11.1462,22.9851,0.543072,-3.81961,-5.99103,-1.11864,7.4116,17.3613,-0.0422282,-11.344,42.6552,-1.30746,-8.31861,22.9851,-0.543072,3.81961
74,0,5.5242,-1.97053,7.47732,42.1864,2.18115,-5.11487,21.2144,-2.58338,-11.1933,22.9829,0.570236,-3.75586,-6.6423,-1.19627,7.69928,18.0077,-0.241194,-12.0427,43.8652,-1.7176,-8.45204,22.9829,-0.570236,3.75586
75,0,5.84611,-1.95389,7.41707,41.8204,2.18019,-5.03654,21.1603,-2.49462,-11.2327,22.9829,0.595644,-3.69129,-7.0965,-1.26293,7.94597,18.6746,-0.439935,-12.7405,45.0509,-2.14165,-8.58497,22.9829,-0.595644,3.69129
76,0,6.15665,-1.93659,7.35439,41.4629,2.17329,-4.96412,21.097,-2.40412,-11.2636,22.9907,0.618992,-3.62655,-7.35432,-1.31848,8.15134,19.3651,-0.636559,-13.429,46.2073,-2.57362,-8.71668,22.9907,-0.618992,3.62655
77,0,6.45731,-1.91953,7.29257,41.1116,2.15972,-4.89865,21.0268,-2.31261,-11.2865,23.0027,0.640157,-3.56118,-7.42103,-1.36332,8.31694,20.0735,-0.828169,-14.0994,47.3287,-3.00733,-8.84889,23.0027,-0.640157,3.56118
78,0,6.74608,-1.90339,7.23407,40.7675,2.13976,-4.84098,20.9495,-2.22146,-11.3035,23.0193,0.658712,-3.49554,-7.30766,-1.39856,8.44698,20.7981,-1.01145,-14.7445,48.4098,-3.43721,-8.98369,23.0193,-0.658712,3.49554
79,0,7.02244,-1.88903,7.18202,40.4295,2.11319,-4.79263,20.8668,-2.13138,-11.317,23.0386,0.674474,-3.42981,-7.02909,-1.42466,8.54325,21.5345,-1.18394,-15.3572,49.4452,-3.85661,-9.11869,23.0386,-0.674474,3.42981
80,0,7.28667,-1.87791,7.14169,40.0994,2.08049,-4.75141,20.7775,-2.04311,-11.3326,23.0629,0.686855,-3.36381,-6.60135,-1.44272,8.60982,22.2833,-1.34211,-15.9284,50.4303,-4.25815,-9.25589,23.0629,-0.686855,3.36381
81,0,7.53727,-1.87095,7.11645,39.775,2.04209,-4.71678,20.6813,-1.95674,-11.3554,23.0902,0.695707,-3.2982,-6.04533,-1.45341,8.64919,23.0401,-1.48395,-16.4536,51.3605,-4.63565,-9.39227,23.0902,-0.695707,3.2982
82,0,7.7751,-1.8694,7.11082,39.4552,1.99833,-4.688,20.5772,-1.87325,-11.3907,23.1203,0.700798,-3.23236,-5.38228,-1.45762,8.66472,23.8029,-1.60667,-16.9254,52.2312,-4.98264,-9.52605,23.1203,-0.700798,3.23236
83,0,7.99941,-1.87451,7.12938,39.139,1.94975,-4.66227,20.464,-1.79225,-11.445,23.1528,0.701542,-3.16711,-4.63511,-1.45649,8.66057,24.5699,-1.70847,-17.342,53.0392,-5.29493,-9.65382,23.1528,-0.701542,3.16711
84,0,8.21056,-1.88755,7.17666,38.8249,1.89703,-4.64029,20.3403,-1.71517,-11.5231,23.1874,0.697941,-3.10188,-3.82494,-1.45053,8.6386,25.339,-1.78833,-17.6987,53.7815,-5.56681,-9.77194,23.1874,-0.697941,3.10188
85,0,8.40786,-1.90905,7.25461,38.5126,1.84036,-4.61921,20.2048,-1.64153,-11.6304,23.2247,0.68953,-3.03653,-2.97461,-1.4405,8.60161,26.1091,-1.84486,-17.9944,54.455,-5.7951,-9.87703,23.2247,-0.68953,3.03653
86,0,8.5924,-1.93928,7.36416,38.1981,1.78085,-4.59789,20.0565,-1.57129,-11.7689,23.2618,0.676619,-2.97187,-2.10359,-1.42722,8.55269,26.8763,-1.8783,-18.2301,55.0572,-5.97863,-9.96344,23.2618,-0.676619,2.97187
87,0,8.76429,-1.97808,7.50467,37.8815,1.71849,-4.57542,19.8939,-1.5047,-11.9395,23.3003,0.658573,-2.90742,-1.22954,-1.41181,8.49584,27.6402,-1.88833,-18.4064,55.5863,-6.11594,-10.0306,23.3003,-0.658573,2.90742
88,0,8.92442,-2.02531,7.67558,37.5613,1.65385,-4.5491,19.7168,-1.44151,-12.1439,23.3392,0.635336,-2.84337,-0.367239,-1.39344,8.42809,28.3986,-1.87547,-18.5243,56.0403,-6.20566,-10.0712,23.3392,-0.635336,2.84337
89,0,9.07299,-2.08093,7.87668,37.2383,1.58662,-4.52087,19.5242,-1.38192,-12.3806,23.38,0.606718,-2.77944,0.470259,-1.37367,8.35515,29.1519,-1.84073,-18.5891,56.4182,-6.25063,-10.0863,23.38,-0.606718,2.77944
90,0,9.21188,-2.14281,8.10021,36.9106,1.51787,-4.48833,19.3169,-1.32578,-12.6443,23.4214,0.57283,-2.71616,1.2748,-1.35321,8.27962,29.8976,-1.78546,-18.6042,56.7188,-6.2529,-10.0751,23.4214,-0.57283,2.71616
91,0,9.3411,-2.21029,8.34363,36.5751,1.44687,-4.45062,19.0943,-1.27258,-12.9329,23.4609,0.533239,-2.65351,2.03871,-1.33151,8.19947,30.6313,-1.71079,-18.5751,56.9405,-6.21456,-10.0361,23.4609,-0.533239,2.65351
92,0,9.46303,-2.28124,8.59925,36.2345,1.37385,-4.41048,18.8585,-1.22237,-13.2368,23.5008,0.488382,-2.59149,2.75913,-1.30877,8.11546,31.355,-1.61888,-18.5077,57.0839,-6.14069,-9.9692,23.5008,-0.488382,2.59149
93,0,9.57806,-2.35389,8.8606,35.8891,1.29864,-4.36651,18.6096,-1.17491,-13.5501,23.5416,0.438022,-2.53,3.43466,-1.28584,8.03071,32.0677,-1.51123,-18.4064,57.1482,-6.03439,-9.87939,23.5416,-0.438022,2.53
94,0,9.68776,-2.42639,9.12105,35.537,1.22134,-4.31984,18.3497,-1.13,-13.8655,23.5807,0.3821,-2.47001,4.06537,-1.2619,7.94219,32.7657,-1.39025,-18.28,57.133,-5.90117,-9.76611,23.5807,-0.3821,2.47001
95,0,9.79312,-2.49725,9.3752,35.1806,1.14119,-4.27223,18.0803,-1.0871,-14.1754,23.6199,0.321149,-2.4107,4.65297,-1.23687,7.84956,33.4496,-1.25794,-18.1321,57.0386,-5.7452,-9.63251,23.6199,-0.321149,2.4107
96,0,9.89579,-2.56362,9.6129,34.8214,1.05807,-4.22433,17.8042,-1.04603,-14.4693,23.6598,0.254748,-2.35299,5.1995,-1.2103,7.75124,34.1193,-1.11632,-17.9707,56.8659,-5.57169,-9.48153,23.6598,-0.254748,2.35299
97,0,9.99606,-2.62425,9.82977,34.4575,0.971932,-4.17727,17.5222,-1.00687,-14.7419,23.6979,0.183322,-2.29672,5.70928,-1.18084,7.64213,34.7713,-0.967259,-17.8001,56.6153,-5.38514,-9.31296,23.6979,-0.183322,2.29672
98,0,10.096,-2.67771,10.0207,34.0936,0.881933,-4.13378,17.2381,-0.968797,-14.9848,23.7372,0.106856,-2.24221,6.18423,-1.148,7.52045,35.4073,-0.812908,-17.6261,56.2878,-5.18918,-9.13089,23.7372,-0.106856,2.24221
99,0,10.1961,-2.7224,10.1802,33.7275,0.788664,-4.09459,16.9533,-0.932432,-15.1915,23.7747,0.0257171,-2.19008,6.62754,-1.11089,7.38288,36.0239,-0.655487,-17.4535,55.8846,-4.98823,-8.93613,23.7747,-0.0257171,2.19008
100,0,10.2964,-2.75811,10.3075,33.3622,0.691324,-4.06074,16.6697,-0.896639,-15.3617,23.8122,-0.059981,-2.13986,7.04201,-1.06751,7.22192,36.6216,-0.496275,-17.2856,55.4073,-4.78518,-8.72699,23.8122,0.059981,2.13986
101,0,10.3982,-2.7838,10.399,32.9991,0.590356,-4.03425,16.3891,-0.862107,-15.4886,23.8502,-0.150219,-2.09267,7.42831,-1.01762,7.03669,37.2,-0.3371,-17.1263,54.8566,-4.58225,-8.50774,23.8502,0.150219,2.09267
102,0,10.502,-2.79995,10.4565,32.6402,0.485429,-4.01603,16.1139,-0.828441,-15.5731,23.8895,-0.244612,-2.04812,7.78711,-0.959899,6.82216,37.759,-0.178995,-16.9774,54.2343,-4.38164,-8.27665,23.8895,0.244612,2.04812
103,0,10.6075,-2.80639,10.4794,32.2826,0.377575,-4.0059,15.8442,-0.795516,-15.6153,23.9268,-0.342456,-2.00727,8.11861,-0.893651,6.57571,38.2943,-0.0238188,-16.8401,53.5418,-4.18396,-8.03599,23.9268,0.342456,2.00727
104,0,10.7152,-2.80395,10.4707,31.9305,0.266592,-4.0054,15.5819,-0.763769,-15.6163,23.9652,-0.444002,-1.96978,8.42183,-0.81892,6.2974,38.8084,0.128258,-16.7156,52.7809,-3.99018,-7.78798,23.9652,0.444002,1.96978
105,0,10.8251,-2.79315,10.4323,31.5819,0.153159,-4.01304,15.3268,-0.732615,-15.5794,24.003,-0.548732,-1.9364,8.69507,-0.736214,5.98903,39.2985,0.275989,-16.6033,51.9526,-3.79978,-7.53623,24.003,0.548732,1.9364
106,0,10.9371,-2.77565,10.37,31.2394,0.0381699,-4.02924,15.0798,-0.702829,-15.5107,24.0419,-0.656274,-1.90731,8.93598,-0.646194,5.65299,39.7659,0.419103,-16.5019,51.0586,-3.61196,-7.28551,24.0419,0.656274,1.90731
107,0,11.0513,-2.75305,10.2895,30.9024,-0.0778663,-4.0537,14.8409,-0.674291,-15.4153,24.0813,-0.766173,-1.88268,9.14265,-0.550265,5.29443,40.2095,0.557519,-16.411,50.1004,-3.42692,-7.04042,24.0813,0.766173,1.88268
108,0,11.1669,-2.72613,10.1935,30.57,-0.193876,-4.0846,14.6095,-0.646643,-15.2991,24.1206,-0.877745,-1.86283,9.31199,-0.450824,4.9223,40.6277,0.690431,-16.3265,49.0791,-3.24113,-6.81095,24.1206,0.877745,1.86283
109,0,11.2841,-2.6965,10.0878,30.2433,-0.309765,-4.11913,14.3848,-0.620456,-15.169,24.1614,-0.991806,-1.84819,9.44234,-0.350064,4.54479,41.0228,0.819075,-16.2479,47.9969,-3.0549,-6.60343,24.1614,0.991806,1.84819
110,0,11.4029,-2.66621,9.97968,29.9209,-0.423873,-4.15859,14.1675,-0.595849,-15.0324,24.2018,-1.10634,-1.83858,9.53164,-0.250726,4.17221,41.3925,0.942416,-16.1712,46.8557,-2.8663,-6.42729,24.2018,1.10634,1.83858
111,0,11.5221,-2.63648,9.87349,29.6021,-0.535901,-4.19796,13.9553,-0.572133,-14.898,24.2421,-1.2219,-1.83459,9.57814,-0.156233,3.81745,41.7377,1.06128,-16.0939,45.6571,-2.67326,-6.29367,24.2421,1.2219,1.83459
112,0,11.6426,-2.60866,9.77403,29.2885,-0.64464,-4.23727,13.7487,-0.550212,-14.77,24.2841,-1.33756,-1.83633,9.58082,-0.0689718,3.48958,42.0606,1.17556,-16.0128,44.4037,-2.47512,-6.20949,24.2841,1.33756,1.83633
113,0,11.764,-2.58395,9.68567,28.9762,-0.750143,-4.2736,13.5467,-0.529632,-14.6565,24.3242,-1.45342,-1.8438,9.53993,0.00787015,3.20066,42.3587,1.28634,-15.9244,43.0983,-2.27011,-6.18471,24.3242,1.45342,1.8438
114,0,11.8864,-2.56282,9.61006,28.6672,-0.851155,-4.30503,13.3487,-0.509825,-14.5607,24.3652,-1.56827,-1.85696,9.45548,0.0717832,2.96022,42.6358,1.39316,-15.826,41.7439,-2.05838,-6.22594,24.3652,1.56827,1.85696
115,0,12.0095,-2.54596,9.54968,28.3618,-0.94746,-4.33041,13.154,-0.491188,-14.4866,24.4076,-1.68205,-1.87562,9.32924,0.121454,2.77329,42.8936,1.49685,-15.713,40.3436,-1.83784,-6.33672,24.4076,1.68205,1.87562
116,0,12.134,-2.5346,9.50902,28.0571,-1.0386,-4.34746,12.9626,-0.473736,-14.4396,24.4487,-1.79421,-1.90001,9.16297,0.155142,2.64647,43.1311,1.59756,-15.5837,38.9018,-1.60934,-6.52049,24.4487,1.79421,1.90001
117,0,12.26,-2.5276,9.48396,27.7527,-1.12438,-4.354,12.7738,-0.45685,-14.4186,24.489,-1.90434,-1.92982,8.96076,0.172114,2.58257,43.3503,1.69536,-15.4341,37.4228,-1.37217,-6.7779,24.489,1.90434,1.92982
118,0,12.3876,-2.52572,9.47721,27.4499,-1.20431,-4.34978,12.5875,-0.440539,-14.4255,24.5295,-2.01171,-1.96506,8.72543,0.173454,2.57752,43.5541,1.79026,-15.2606,35.9108,-1.12652,-7.10413,24.5295,2.01171,1.96506
119,0,12.5177,-2.52803,9.48548,27.147,-1.27789,-4.33249,12.404,-0.424575,-14.4598,24.5693,-2.11574,-2.00578,8.46147,0.159974,2.62828,43.7432,1.88173,-15.0614,34.3713,-0.873596,-7.49284,24.5693,2.11574,2.00578
120,0,12.6508,-2.53368,9.50572,26.844,-1.34601,-4.30315,12.2237,-0.409007,-14.5175,24.6083,-2.21647,-2.0509,8.17404,0.132644,2.73117,43.9194,1.97066,-14.8331,32.8096,-0.613859,-7.94026,24.6083,2.21647,2.0509
121,0,12.7865,-2.54258,9.53759,26.54,-1.40809,-4.26018,12.0456,-0.393431,-14.5991,24.6463,-2.31303,-2.10028,7.86899,0.0943424,2.87533,44.0847,2.05581,-14.5738,31.2322,-0.348763,-8.4328,24.6463,2.31303,2.10028
122,0,12.9266,-2.5528,9.5742,26.235,-1.46431,-4.20286,11.8713,-0.37762,-14.698,24.6831,-2.40526,-2.15426,7.55137,0.0481032,3.04932,44.2402,2.13693,-14.2808,29.6438,-0.0794255,-8.9597,24.6831,2.40526,2.15426
123,0,13.0704,-2.56411,9.61468,25.9289,-1.51452,-4.13267,11.7,-0.361627,-14.8132,24.7193,-2.49225,-2.21139,7.22661,-0.00360318,3.24381,44.3883,2.21313,-13.9522,28.0513,0.192475,-9.50952,24.7193,2.49225,2.21139
124,0,13.2192,-2.57466,9.65244,25.6208,-1.55952,-4.04951,11.5327,-0.345051,-14.9369,24.7539,-2.57418,-2.27159,6.90131,-0.0571362,3.44509,44.5301,2.28386,-13.5877,26.4614,0.465045,-10.0687,24.7539,2.57418,2.27159
125,0,13.3729,-2.58416,9.68641,25.3099,-1.59922,-3.9544,11.3698,-0.328114,-15.0674,24.7862,-2.65058,-2.3346,6.57956,-0.10969,3.64261,44.6663,2.34777,-13.1871,24.8803,0.736319,-10.6255,24.7862,2.65058,2.3346
126,0,13.5316,-2.59149,9.71262,24.9977,-1.63344,-3.84903,11.2107,-0.310765,-15.1994,24.8184,-2.72057,-2.39939,6.26733,-0.158658,3.82656,44.8008,2.40352,-12.7509,23.3147,1.00376,-11.1686,24.8184,2.72057,2.39939
127,0,13.6961,-2.59577,9.72794,24.6842,-1.66347,-3.73448,11.0567,-0.292628,-15.3285,24.85,-2.78479,-2.46567,5.96962,-0.201492,3.98741,44.9346,2.45041,-12.2816,21.7714,1.26522,-11.6868,24.85,2.78479,2.46567
128,0,13.866,-2.59632,9.72992,24.3661,-1.68902,-3.61246,10.9077,-0.274066,-15.4514,24.8783,-2.84238,-2.53261,5.68943,-0.236071,4.11721,45.0663,2.48675,-11.7807,20.2568,1.51919,-12.1707,24.8783,2.84238,2.53261
129,0,14.0415,-2.59274,9.71711,24.0459,-1.7112,-3.48528,10.7637,-0.254683,-15.5636,24.9057,-2.89388,-2.59986,5.43139,-0.261103,4.21114,45.1999,2.51155,-11.2521,18.7778,1.76412,-12.6138,24.9057,2.89388,2.59986
130,0,14.2223,-2.5848,9.68871,23.7232,-1.72902,-3.35391,10.6248,-0.235113,-15.6643,24.9323,-2.93809,-2.66664,5.19662,-0.275388,4.26474,45.3362,2.52319,-10.7004,17.3406,1.99745,-13.0084,24.9323,2.93809,2.66664
131,0,14.4087,-2.57241,9.64437,23.3962,-1.7445,-3.22253,10.4914,-0.214997,-15.7498,24.956,-2.97603,-2.73199,4.98837,-0.279582,4.28047,45.4743,2.52156,-10.1301,15.9514,2.21885,-13.3545,24.956,2.97603,2.73199
132,0,14.6002,-2.55533,9.58324,23.0675,-1.75697,-3.09112,10.3634,-0.194121,-15.8189,24.9796,-3.00706,-2.79586,4.80744,-0.273346,4.25708,45.6178,2.50527,-9.54731,14.6165,2.42696,-13.6463,24.9796,3.00706,2.79586
133,0,14.7966,-2.53392,9.50658,22.7361,-1.76674,-2.96339,10.2406,-0.173264,-15.8701,25.0022,-3.03127,-2.85744,4.65359,-0.257925,4.19922,45.7662,2.47407,-8.9582,13.3411,2.62149,-13.8856,25.0022,3.03127,2.85744
134,0,14.9976,-2.50869,9.41622,22.4011,-1.77496,-2.84072,10.1234,-0.15242,-15.9039,25.0228,-3.04935,-2.91612,4.52614,-0.233788,4.10864,45.9178,2.42877,-8.36763,12.1293,2.80252,-14.0732,25.0228,3.04935,2.91612
135,0,15.2024,-2.48003,9.31345,22.0639,-1.78107,-2.72408,10.0109,-0.131332,-15.9219,25.0431,-3.06077,-2.97161,4.42544,-0.203299,3.99419,46.0749,2.36902,-7.78231,10.9868,2.97013,-14.2121,25.0431,3.06077,2.97161
136,0,15.4113,-2.44857,9.20064,21.7251,-1.78558,-2.61681,9.90406,-0.111152,-15.9228,25.063,-3.06607,-3.0228,4.34777,-0.168137,3.86216,46.2362,2.29657,-7.20752,9.91597,3.12477,-14.3073,25.063,3.06607,3.0228
137,0,15.6236,-2.41481,9.07948,21.3825,-1.789,-2.52014,9.80244,-0.0912489,-15.9082,25.0808,-3.0655,-3.06995,4.29211,-0.129899,3.71853,46.3988,2.21243,-6.64831,8.92017,3.26755,-14.3636,25.0808,3.0655,3.06995
138,0,15.8388,-2.3794,8.95226,21.0387,-1.79111,-2.43385,9.70596,-0.0724885,-15.8801,25.0985,-3.05948,-3.11247,4.2555,-0.0902412,3.56952,46.5632,2.11858,-6.10846,8.00181,3.39922,-14.3849,25.0985,3.05948,3.11247
139,0,16.0569,-2.34354,8.82337,20.6949,-1.79196,-2.3618,9.61535,-0.0553911,-15.8411,25.1171,-3.048,-3.14961,4.23551,-0.051898,3.4254,46.7284,2.01765,-5.59235,7.16192,3.51999,-14.3798,25.1171,3.048,3.14961
140,0,16.2766,-2.3073,8.69303,20.3475,-1.79182,-2.30138,9.52971,-0.0398691,-15.7931,25.1331,-3.03182,-3.18184,4.22952,-0.0151006,3.28705,46.8885,1.91189,-5.10204,6.40156,3.63111,-14.3516,25.1331,3.03182,3.18184
141,0,16.4982,-2.27153,8.56427,20.0028,-1.79041,-2.25575,9.45071,-0.026942,-15.737,25.1515,-3.01123,-3.20839,4.23278,0.016879,3.16678,47.0468,1.80422,-4.64009,5.71968,3.73302,-14.3123,25.1515,3.01123,3.20839
142,0,16.7215,-2.2363,8.43738,19.6569,-1.78809,-2.22425,9.37834,-0.0166993,-15.6739,25.1686,-2.98671,-3.22914,4.24543,0.044349,3.06344,47.1965,1.69834,-4.2071,5.11886,3.82544,-14.2601,25.1686,2.98671,3.22914
143,0,16.9452,-2.20296,8.31719,19.3118,-1.78461,-2.20699,9.31331,-0.00931932,-15.6094,25.1853,-2.95853,-3.24452,4.26173,0.0649719,2.98585,47.3367,1.59678,-3.80419,4.5949,3.90846,-14.2094,25.1853,2.95853,3.24452
144,0,17.1697,-2.17076,8.20104,18.9693,-1.78018,-2.20351,9.25622,-0.00576745,-15.5407,25.2033,-2.92752,-3.25375,4.27954,0.078128,2.93635,47.4667,1.50326,-3.43147,4.14841,3.98202,-14.1626,25.2033,2.92752,3.25375
145,0,17.3945,-2.14048,8.09179,18.6285,-1.77457,-2.21417,9.20873,-0.00662835,-15.4701,25.2204,-2.89393,-3.25767,4.29458,0.0826893,2.91918,47.5823,1.42042,-3.0895,3.77594,4.0452,-14.1267,25.2204,2.89393,3.25767
146,0,17.6188,-2.11247,7.99063,18.2922,-1.76796,-2.23828,9.17189,-0.0117346,-15.4009,25.2387,-2.8582,-3.25576,4.30542,0.0789314,2.93332,47.684,1.35131,-2.77739,3.47724,4.09767,-14.1044,25.2387,2.8582,3.25576
147,0,17.8421,-2.0867,7.89755,17.9599,-1.76065,-2.27526,9.1465,-0.0218289,-15.3333,25.2568,-2.82101,-3.24795,4.30869,0.0658305,2.98262,47.7694,1.29876,-2.49507,3.25017,4.13872,-14.1018,25.2568,2.82101,3.24795
148,0,18.0645,-2.06259,7.81041,17.6317,-1.75273,-2.32357,9.13525,-0.0375195,-15.2654,25.2738,-2.78307,-3.23535,4.30004,0.043188,3.06781,47.8367,1.26459,-2.24415,3.09158,4.1675,-14.1219,25.2738,2.78307,3.23535
149,0,18.285,-2.04073,7.73138,17.3118,-1.74369,-2.38423,9.13933,-0.0592508,-15.1987,25.2926,-2.74403,-3.21725,4.27614,0.0102307,3.19178,47.8888,1.25011,-2.02457,2.99875,4.18332,-14.1699,25.2926,2.74403,3.21725
150,0,18.504,-2.02021,7.65714,16.9977,-1.73513,-2.45448,9.16148,-0.0869454,-15.1319,25.3094,-2.70549,-3.1943,4.23318,-0.0332719,3.35537,47.9221,1.2574,-1.83781,2.96812,4.18545,-14.2488,25.3094,2.70549,3.1943
151,0,18.7201,-2.00146,7.58928,16.6905,-1.72609,-2.53545,9.20314,-0.121061,-15.0661,25.3244,-2.66653,-3.16675,4.17004,-0.0852392,3.55072,47.9374,1.28559,-1.68466,3.00046,4.17452,-14.3507,25.3244,2.66653,3.16675
152,0,18.9332,-1.98405,7.52629,16.3945,-1.71768,-2.62444,9.26701,-0.161943,-14.9999,25.3405,-2.62868,-3.13513,4.08082,-0.147653,3.78523,47.9394,1.33518,-1.56962,3.09056,4.14955,-14.4832,25.3405,2.62868,3.13513
153,0,19.1427,-1.96723,7.46537,16.1067,-1.71033,-2.72114,9.35569,-0.209642,-14.9311,25.3534,-2.59196,-3.09955,3.96239,-0.219847,4.05631,47.9252,1.40538,-1.49237,3.2344,4.11104,-14.6456,25.3534,2.59196,3.09955
154,0,19.3479,-1.95095,7.40641,15.8291,-1.70448,-2.82405,9.47151,-0.263743,-14.8601,25.3639,-2.55652,-3.06075,3.81645,-0.298978,4.35323,47.8979,1.49374,-1.45816,3.4338,4.06059,-14.8225,25.3639,2.55652,3.06075
155,0,19.548,-1.93466,7.3474,15.5655,-1.70043,-2.93325,9.61755,-0.325194,-14.7841,25.3739,-2.52278,-3.01821,3.63542,-0.38709,4.68356,47.8619,1.59923,-1.4676,3.68085,3.99742,-15.0223,25.3739,2.52278,3.01821
156,0,19.7427,-1.91796,7.28689,15.3148,-1.69965,-3.04691,9.7966,-0.392585,-14.702,25.3814,-2.49129,-2.97337,3.42272,-0.479787,5.03073,47.8176,1.7183,-1.52411,3.97766,3.92408,-15.2252,25.3814,2.49129,2.97337
157,0,19.9296,-1.90061,7.22401,15.0758,-1.70218,-3.16357,10.0109,-0.466599,-14.6144,25.3835,-2.46194,-2.9258,3.1796,-0.575969,5.39055,47.7654,1.8486,-1.62904,4.32153,3.84119,-15.4235,25.3835,2.46194,2.9258
158,0,20.1095,-1.88215,7.15709,14.8527,-1.7093,-3.28227,10.2638,-0.546169,-14.5187,25.3834,-2.43539,-2.87647,2.90154,-0.675923,5.76401,47.7106,1.98596,-1.78338,4.70518,3.75049,-15.6182,25.3834,2.43539,2.87647
159,0,20.2792,-1.86209,7.08432,14.6457,-1.72121,-3.4018,10.5574,-0.631164,-14.4134,25.3797,-2.41152,-2.82579,2.59764,-0.774291,6.13105,47.6546,2.12716,-1.98721,5.13159,3.65346,-15.7833,25.3797,2.41152,2.82579
160,0,20.4385,-1.83999,7.00412,14.4527,-1.73901,-3.52095,10.8949,-0.720738,-14.2984,25.369,-2.39035,-2.77377,2.26847,-0.870158,6.48826,47.5961,2.26865,-2.23954,5.59546,3.5519,-15.9137,25.369,2.39035,2.77377
161,0,20.5845,-1.81623,6.91791,14.2789,-1.76334,-3.63825,11.2779,-0.814179,-14.1744,25.3556,-2.37224,-2.72104,1.92085,-0.959985,6.82248,47.5408,2.4073,-2.53584,6.09422,3.44715,-15.9955,25.3556,2.37224,2.72104
162,0,20.7152,-1.78952,6.82093,14.1225,-1.79506,-3.75285,11.7096,-0.910478,-14.0383,25.336,-2.35722,-2.66761,1.56237,-1.03984,7.11919,47.4861,2.54045,-2.87082,6.62557,3.34087,-16.0133,25.336,2.35722,2.66761
163,0,20.8274,-1.7608,6.7166,13.9833,-1.83502,-3.86206,12.1911,-1.00848,-13.8938,25.3091,-2.3456,-2.61474,1.197,-1.10887,7.37537,47.4315,2.66518,-3.24073,7.18298,3.23473,-15.9642,25.3091,2.3456,2.61474
164,0,20.9181,-1.72925,6.60194,13.8667,-1.8835,-3.96654,12.7248,-1.10756,-13.7382,25.279,-2.33724,-2.56216,0.836291,-1.16188,7.57187,47.3802,2.78053,-3.63333,7.76458,3.12985,-15.8333,25.279,2.33724,2.56216
165,0,20.9844,-1.69582,6.48039,13.7673,-1.94113,-4.06499,13.3121,-1.20671,-13.5748,25.2394,-2.33209,-2.51056,0.487339,-1.19648,7.70005,47.3244,2.88546,-4.04053,8.3648,3.02765,-15.614,25.2394,2.33209,2.51056
166,0,21.0208,-1.66043,6.35162,13.6899,-2.00842,-4.15718,13.9534,-1.30456,-13.4037,25.1942,-2.33011,-2.4599,0.158618,-1.21047,7.75186,47.2663,2.98026,-4.45042,8.97864,2.9292,-15.304,25.1942,2.33011,2.4599
167,0,21.0233,-1.62394,6.21883,13.6341,-2.08544,-4.24101,14.6497,-1.40024,-13.2299,25.142,-2.33147,-2.41122,-0.14244,-1.20134,7.71807,47.2018,3.06588,-4.8493,9.59985,2.83565,-14.9038,25.142,2.33147,2.41122
168,0,20.9857,-1.58682,6.08364,13.6012,-2.17232,-4.31645,15.4006,-1.49249,-13.0535,25.084,-2.33567,-2.36448,-0.408885,-1.16816,7.59518,47.1291,3.14358,-5.22452,10.223,2.74822,-14.4166,25.084,2.33567,2.36448
169,0,20.9023,-1.55033,5.95068,13.5918,-2.26903,-4.38536,16.2062,-1.58128,-12.8785,25.0194,-2.34301,-2.32037,-0.635531,-1.11021,7.38034,47.0444,3.21575,-5.56365,10.8417,2.66787,-13.8508,25.0194,2.34301,2.32037
170,0,20.7669,-1.51581,5.82485,13.6052,-2.37615,-4.44711,17.0656,-1.66504,-12.709,24.9472,-2.35334,-2.27872,-0.818972,-1.02881,7.07823,46.9437,3.28544,-5.85432,11.4498,2.59586,-13.2206,24.9472,2.35334,2.27872
171,0,20.572,-1.48384,5.70825,13.6427,-2.49254,-4.50203,17.9765,-1.7441,-12.5474,24.8688,-2.36661,-2.24035,-0.95706,-0.925362,6.69371,46.8257,3.35497,-6.0867,12.0415,2.53298,-12.541,24.8688,2.36661,2.24035
172,0,20.3106,-1.45673,5.60933,13.7045,-2.61798,-4.55197,18.9376,-1.81782,-12.3989,24.784,-2.38222,-2.2058,-1.0486,-0.802471,6.2361,46.6871,3.42659,-6.25218,12.6108,2.4805,-11.8304,24.784,2.38222,2.2058
173,0,19.9745,-1.43636,5.53499,13.7928,-2.7519,-4.5993,19.9462,-1.8872,-12.2687,24.695,-2.40039,-2.1747,-1.09538,-0.664183,5.72017,46.5279,3.50382,-6.34337,13.1523,2.43865,-11.1132,24.695,2.40039,2.1747
174,0,19.5562,-1.42408,5.49017,13.9042,-2.89363,-4.64437,20.9991,-1.95225,-12.1603,24.5986,-2.42084,-2.14804,-1.0979,-0.514112,5.15919,46.3429,3.58834,-6.35796,13.6614,2.40837,-10.4081,24.5986,2.42084,2.14804
175,0,19.0481,-1.42123,5.47977,14.0433,-3.0419,-4.68983,22.0931,-2.01421,-12.0758,24.5001,-2.44322,-2.1256,-1.06082,-0.35676,4.56989,46.1357,3.68214,-6.29371,14.1341,2.38989,-9.73938,24.5001,2.44322,2.1256
176,0,18.4431,-1.42994,5.51154,14.2072,-3.19636,-4.73869,23.2244,-2.07405,-12.0212,24.3964,-2.46758,-2.10796,-0.986679,-0.196777,3.96971,45.9018,3.78647,-6.15343,14.5665,2.38333,-9.12585,24.3964,2.46758,2.10796
177,0,17.7347,-1.45183,5.59145,14.3975,-3.35524,-4.79171,24.3887,-2.13367,-12.0002,24.2906,-2.49346,-2.09552,-0.878901,-0.0386407,3.37556,45.6435,3.90218,-5.93917,14.9559,2.38825,-8.58729,24.2906,2.49346,2.09552
178,0,16.9173,-1.48753,5.72171,14.6137,-3.51815,-4.85364,25.5824,-2.19511,-12.0122,24.1825,-2.52091,-2.08797,-0.742073,0.114666,2.79884,45.3597,4.03044,-5.65775,15.3004,2.40338,-8.13418,24.1825,2.52091,2.08797
179,0,15.9874,-1.53799,5.90569,14.8562,-3.68405,-4.92475,26.8008,-2.25958,-12.0606,24.0735,-2.54986,-2.0856,-0.578267,0.259839,2.25217,45.0516,4.17086,-5.31584,15.5992,2.42846,-7.77638,24.0735,2.54986,2.0856
180,0,14.9429,-1.6039,6.14586,15.123,-3.85102,-5.00965,28.0397,-2.33062,-12.1458,23.9626,-2.57932,-2.08883,-0.39201,0.39521,1.74203,44.7181,4.32211,-4.92291,15.8519,2.46209,-7.51602,23.9626,2.57932,2.08883
181,0,13.7847,-1.68409,6.43773,15.4157,-4.01864,-5.10899,29.2953,-2.40965,-12.2649,23.8525,-2.60981,-2.09738,-0.18628,0.519415,1.27371,44.3626,4.48374,-4.48927,16.06,2.50241,-7.35092,23.8525,2.60981,2.09738
182,0,12.5158,-1.77876,6.78184,15.7332,-4.18583,-5.2255,30.5633,-2.49973,-12.4185,23.743,-2.64107,-2.11133,0.0373289,0.63203,0.848942,43.9857,4.65362,-4.02647,16.2252,2.5484,-7.27467,23.743,2.64107,2.11133
183,0,11.1434,-1.88456,7.1658,16.0761,-4.3513,-5.3603,31.8401,-2.60212,-12.598,23.6362,-2.67253,-2.13111,0.275996,0.732943,0.468225,43.5911,4.82846,-3.5475,16.3504,2.59838,-7.27579,23.6362,2.67253,2.13111
184,0,9.6785,-2.00028,7.58504,16.4448,-4.5148,-5.51532,33.1225,-2.71961,-12.8025,23.5329,-2.70456,-2.15624,0.527726,0.823477,0.126628,43.1818,5.006,-3.06579,16.44,2.65076,-7.3374,23.5329,2.70456,2.15624
185,0,8.13405,-2.12301,8.02869,16.8376,-4.67532,-5.69118,34.4066,-2.85298,-13.0269,23.4333,-2.73648,-2.18648,0.791325,0.903751,-0.176262,42.7604,5.18227,-2.59378,16.4981,2.70467,-7.44638,23.4333,2.73648,2.18648
186,0,6.52972,-2.24825,8.48042,17.2543,-4.8325,-5.88886,35.691,-3.00415,-13.2601,23.3372,-2.76846,-2.22226,1.06499,0.97617,-0.449509,42.3299,5.35335,-2.1457,16.5304,2.75954,-7.57911,23.3372,2.76846,2.22226
187,0,4.88703,-2.37252,8.92754,17.6942,-4.9854,-6.10882,36.972,-3.17451,-13.4987,23.2455,-2.80027,-2.26306,1.34764,1.04078,-0.69329,41.8945,5.51587,-1.73469,16.5422,2.8138,-7.7209,23.2455,2.80027,2.26306
188,0,3.23082,-2.49068,9.35167,18.1593,-5.13414,-6.35117,38.2478,-3.36394,-13.731,23.1609,-2.83186,-2.30832,1.63678,1.09983,-0.916054,41.4602,5.66611,-1.3706,16.5386,2.86808,-7.85264,23.1609,2.83186,2.30832
189,0,1.58816,-2.59938,9.74085,18.648,-5.27762,-6.61442,39.5161,-3.57298,-13.9538,23.0826,-2.86278,-2.35846,1.93184,1.15307,-1.11686,41.0298,5.80085,-1.06354,16.5245,2.92125,-7.96251,23.0826,2.86278,2.35846
190,0,-0.0126942,-2.69476,10.0816,19.159,-5.41641,-6.89979,40.7751,-3.8022,-14.1586,23.0099,-2.89339,-2.41251,2.23132,1.2015,-1.29951,40.6054,5.91855,-0.821056,16.5044,2.97312,-8.03775,23.0099,2.89339,2.41251
191,0,-1.54224,-2.77234,10.3582,19.6921,-5.5496,-7.20458,42.0226,-4.04994,-14.3387,22.9438,-2.92306,-2.47073,2.53138,1.24507,-1.46382,40.1899,6.01685,-0.647948,16.4802,3.02358,-8.07306,22.9438,2.92306,2.47073
192,0,-2.973,-2.83009,10.5638,20.2483,-5.67746,-7.5281,43.2572,-4.31645,-14.4901,22.8854,-2.95242,-2.53251,2.83238,1.28353,-1.60884,39.7867,6.09587,-0.547675,16.4551,3.07191,-8.06358,22.8854,2.95242,2.53251
193,0,-4.27999,-2.86576,10.6906,20.8271,-5.79875,-7.86837,44.4762,-4.60038,-14.6098,22.8355,-2.98064,-2.59764,3.1301,1.31656,-1.73336,39.3967,6.15536,-0.518225,16.4285,3.11798,-8.01232,22.8355,2.98064,2.59764
194,0,-5.44196,-2.87824,10.7349,21.4248,-5.91371,-8.22329,45.6772,-4.8996,-14.6963,22.7913,-3.00773,-2.6659,3.42263,1.34205,-1.82943,39.0174,6.19605,-0.557768,16.4003,3.16159,-7.92715,22.7913,3.00773,2.6659
195,0,-6.44125,-2.86752,10.6968,22.0437,-6.02215,-8.59109,46.858,-5.21347,-14.7505,22.7556,-3.03409,-2.73648,3.7073,1.35859,-1.89178,38.6509,6.22054,-0.662614,16.3687,3.20115,-7.81727,22.7556,3.03409,2.73648
196,0,-7.26476,-2.83444,10.5792,22.6814,-6.12249,-8.96884,48.0158,-5.53962,-14.775,22.7271,-3.05869,-2.80962,3.98172,1.36447,-1.91392,38.294,6.22962,-0.824565,16.3302,3.23737,-7.69652,22.7271,3.05869,2.80962
197,0,-7.90514,-2.78038,10.3868,23.3346,-6.21491,-9.35277,49.1472,-5.87532,-14.774,22.7037,-3.08203,-2.88486,4.24303,1.35723,-1.88663,37.9434,6.22641,-1.0365,16.2825,3.26929,-7.58042,22.7037,3.08203,2.88486
198,0,-8.35828,-2.70648,10.1234,24.0053,-6.29869,-9.73953,50.2489,-6.21754,-14.75,22.6885,-3.10398,-2.96194,4.48896,1.33547,-1.80464,37.6,6.21351,-1.28978,16.2214,3.29662,-7.48346,22.6885,3.10398,2.96194
199,0,-8.62719,-2.61692,9.80359,24.6903,-6.3727,-10.1273,51.3175,-6.56492,-14.7137,22.6791,-3.12405,-3.04003,4.71776,1.29693,-1.65933,37.2594,6.1931,-1.57394,16.1435,3.32018,-7.42357,22.6791,3.12405,3.04003
200,0,-8.71744,-2.5146,9.43739,25.3879,-6.4361,-10.5109,52.3486,-6.91401,-14.6726,22.6755,-3.14246,-3.11961,4.92748,1.24018,-1.44538,36.9195,6.16772,-1.88117,16.0452,3.33894,-7.41342,22.6755,3.14246,3.11961
201,0,-8.63866,-2.40284,9.03647,26.0965,-6.48828,-10.8872,53.3388,-7.26104,-14.633,22.677,-3.15847,-3.2002,5.11754,1.16461,-1.16038,36.5781,6.13919,-2.19924,15.9239,3.35448,-7.46718,22.677,3.15847,3.2002
202,0,-8.40301,-2.28535,8.61401,26.8141,-6.5283,-11.2512,54.2835,-7.60267,-14.6029,22.6833,-3.17253,-3.28163,5.28753,1.07026,-0.804489,36.2335,6.10969,-2.52088,15.7773,3.36712,-7.59145,22.6833,3.17253,3.28163
203,0,-8.02641,-2.16666,8.18625,27.539,-6.55506,-11.6015,55.1792,-7.9369,-14.591,22.6939,-3.18367,-3.36353,5.43808,0.956898,-0.376793,35.8841,6.08025,-2.83606,15.604,3.3771,-7.7943,22.6939,3.18367,3.36353
204,0,-7.52614,-2.05001,7.76491,28.2717,-6.56849,-11.9335,56.0217,-8.25937,-14.6016,22.7107,-3.19237,-3.44594,5.57032,0.827019,0.113265,35.5312,6.05206,-3.13755,15.4038,3.38607,-8.07345,22.7107,3.19237,3.44594
205,0,-6.92003,-1.93958,7.36523,29.0054,-6.56782,-12.245,56.8075,-8.56797,-14.6405,22.7282,-3.19804,-3.5285,5.68515,0.682058,0.660209,35.1685,6.02595,-3.41768,15.1762,3.3944,-8.42793,22.7282,3.19804,3.5285
206,0,-6.22807,-1.83861,6.99914,29.7431,-6.55279,-12.5319,57.5328,-8.85901,-14.7104,22.7509,-3.20093,-3.61149,5.78556,0.525257,1.25168,34.8011,6.00205,-3.67178,14.9235,3.40308,-8.84995,22.7509,3.20093,3.61149
207,0,-5.46868,-1.75027,6.67832,30.4793,-6.52246,-12.7941,58.1947,-9.13159,-14.812,22.7749,-3.19985,-3.69478,5.87335,0.360348,1.87344,34.4248,5.97984,-3.89326,14.6467,3.41284,-9.32789,22.7749,3.19985,3.69478
208,0,-4.65995,-1.6765,6.41009,31.2135,-6.47764,-13.0293,58.7905,-9.38309,-14.9431,22.8008,-3.19556,-3.77804,5.95161,0.19149,2.50961,34.0411,5.95968,-4.07936,14.3485,3.42481,-9.8492,22.8008,3.19556,3.77804
209,0,-3.82134,-1.6195,6.20266,31.9439,-6.41759,-13.2371,59.3176,-9.61223,-15.1024,22.8286,-3.18707,-3.86146,6.02351,0.0226125,3.14521,33.6507,5.94035,-4.22831,14.0326,3.43886,-10.3975,22.8286,3.18707,3.86146
210,0,-2.96709,-1.57965,6.05751,32.6702,-6.34319,-13.417,59.7743,-9.81818,-15.2825,22.8592,-3.17489,-3.94481,6.09181,-0.141562,3.76235,33.2554,5.92142,-4.33808,13.702,3.45615,-10.9565,22.8592,3.17489,3.94481
211,0,-2.11272,-1.55713,5.97546,33.387,-6.25448,-13.5693,60.1591,-10.0003,-15.4783,22.8887,-3.15845,-4.02818,6.15932,-0.296935,4.34557,32.8528,5.9019,-4.41086,13.361,3.4764,-11.5078,22.8887,3.15845,4.02818
212,0,-1.27024,-1.5518,5.95605,34.0967,-6.15157,-13.6933,60.4703,-10.1575,-15.6831,22.921,-3.13769,-4.1118,6.22858,-0.440113,4.88219,32.448,5.88035,-4.44814,13.013,3.49984,-12.0371,22.921,3.13769,4.1118
213,0,-0.449106,-1.56108,5.98985,34.7946,-6.03557,-13.7917,60.7084,-10.2906,-15.8846,22.9523,-3.11238,-4.19537,6.30228,-0.567463,5.35875,32.0391,5.85565,-4.45239,12.663,3.52701,-12.5277,22.9523,3.11238,4.19537
214,0,0.342342,-1.58393,6.07309,35.48,-5.9064,-13.8652,60.8721,-10.3992,-16.0774,22.9839,-3.08184,-4.27887,6.38221,-0.675969,5.76419,31.6283,5.82619,-4.42685,12.3136,3.55786,-12.9659,22.9839,3.08184,4.27887
215,0,1.09863,-1.61759,6.19569,36.1533,-5.76525,-13.9143,60.9617,-10.4839,-16.2515,23.0172,-3.04707,-4.36243,6.46943,-0.764863,6.0959,31.2191,5.79114,-4.37768,11.9687,3.5925,-13.3434,23.0172,3.04707,4.36243
216,0,1.81627,-1.65867,6.34522,36.8125,-5.61233,-13.9413,60.9778,-10.5451,-16.3971,23.0514,-3.00734,-4.44584,6.5654,-0.83271,6.34878,30.8121,5.74952,-4.30953,11.6316,3.63032,-13.652,23.0514,3.00734,4.44584
217,0,2.49319,-1.70476,6.51289,37.4525,-5.44881,-13.9476,60.9208,-10.5831,-16.5089,23.0828,-2.9624,-4.52876,6.67087,-0.8792,6.52192,30.4047,5.70037,-4.22651,11.3044,3.67173,-13.8864,23.0828,2.9624,4.52876
218,0,3.129,-1.75256,6.68666,38.0781,-5.2751,-13.9343,60.7914,-10.5986,-16.5802,23.1172,-2.91289,-4.61191,6.78554,-0.906007,6.6217,30.0042,5.64277,-4.13547,10.9893,3.71595,-14.048,23.1172,2.91289,4.61191
219,0,3.72394,-1.7993,6.85643,38.6844,-5.09192,-13.9029,60.5907,-10.5917,-16.6067,23.1509,-2.858,-4.69435,6.90897,-0.914413,6.65298,29.6075,5.5767,-4.04074,10.6865,3.76241,-14.1386,23.1509,2.858,4.69435
220,0,4.27924,-1.84261,7.01363,39.2712,-4.90034,-13.8554,60.3194,-10.5633,-16.5862,23.1849,-2.79815,-4.77622,7.04057,-0.906739,6.62442,29.2159,5.50169,-3.946,10.3969,3.81141,-14.1637,23.1849,2.79815,4.77622
221,0,4.79702,-1.87965,7.14801,39.8374,-4.70046,-13.7915,59.9791,-10.5131,-16.5173,23.2191,-2.7332,-4.85723,7.1795,-0.886375,6.54863,28.8304,5.41814,-3.8571,10.1206,3.86135,-14.1317,23.2191,2.7332,4.85723
222,0,5.27904,-1.90881,7.25372,40.383,-4.49375,-13.7123,59.5709,-10.4416,-16.4005,23.2544,-2.66382,-4.93748,7.3237,-0.856957,6.4391,28.4512,5.32657,-3.7762,9.85561,3.91231,-14.0556,23.2544,2.66382,4.93748
223,0,5.72688,-1.92893,7.32664,40.9051,-4.28069,-13.6188,59.0955,-10.3491,-16.2398,23.2888,-2.58958,-5.01654,7.47132,-0.822462,6.3106,28.0764,5.22767,-3.70762,9.601,3.96287,-13.9471,23.2888,2.58958,5.01654
224,0,6.14189,-1.93878,7.36233,41.406,-4.0617,-13.5118,58.5548,-10.2363,-16.0373,23.3256,-2.51076,-5.09426,7.62113,-0.785711,6.17363,27.7083,5.122,-3.65098,9.35431,4.01322,-13.8185,23.3256,2.51076,5.09426
225,0,6.5262,-1.93875,7.36223,41.8842,-3.83795,-13.3913,57.9497,-10.1032,-15.801,23.3639,-2.42771,-5.1698,7.77033,-0.752217,6.04873,27.3456,5.01068,-3.60934,9.11334,4.06256,-13.6878,23.3639,2.42771,5.1698
226,0,6.87863,-1.92914,7.3274,42.337,-3.61003,-13.2575,57.2811,-9.95003,-15.5385,23.4014,-2.34028,-5.24343,7.9181,-0.724136,5.94397,26.9855,4.89463,-3.58381,8.8765,4.1102,-13.5642,23.4014,2.34028,5.24343
227,0,7.2013,-1.9102,7.25875,42.7642,-3.37846,-13.1102,56.5503,-9.77716,-15.2557,23.4393,-2.2489,-5.31467,8.06137,-0.706123,5.87675,26.6281,4.7751,-3.57335,8.64035,4.15581,-13.4665,23.4393,2.2489,5.31467
228,0,7.49322,-1.88348,7.16189,43.1672,-3.1443,-12.9501,55.7588,-9.58569,-14.9616,23.4789,-2.15415,-5.38329,8.19983,-0.699305,5.8513,26.2733,4.6532,-3.57821,8.40311,4.19903,-13.3995,23.4789,2.15415,5.38329
229,0,7.75355,-1.85081,7.04339,43.5448,-2.90802,-12.7761,54.9073,-9.37545,-14.6669,23.5196,-2.0559,-5.44854,8.33158,-0.706437,5.87792,25.9204,4.52963,-3.59697,8.163,4.24026,-13.3751,23.5196,2.0559,5.44854
230,0,7.98161,-1.81421,6.91058,43.897,-2.67043,-12.5904,53.9967,-9.14869,-14.3803,23.5616,-1.9546,-5.51023,8.45586,-0.728574,5.96053,25.5684,4.40557,-3.6281,7.91816,4.27897,-13.3993,23.5616,1.9546,5.51023
231,0,8.17634,-1.77508,6.76848,44.2218,-2.43229,-12.3901,53.0285,-8.90469,-14.1099,23.6032,-1.85086,-5.56833,8.57225,-0.765534,6.0984,25.215,4.28207,-3.66992,7.66754,4.31559,-13.4728,23.6032,1.85086,5.56833
232,0,8.33699,-1.73668,6.62893,44.5222,-2.19438,-12.1786,52.004,-8.64648,-13.8662,23.647,-1.74452,-5.62184,8.68079,-0.817439,6.29188,24.8623,4.15937,-3.71887,7.41064,4.35039,-13.599,23.647,1.74452,5.62184
233,0,8.46235,-1.70086,6.49873,44.794,-1.95737,-11.953,50.9234,-8.37357,-13.6576,23.6894,-1.63642,-5.67119,8.78191,-0.882491,6.53417,24.5064,4.03852,-3.77385,7.1475,4.38403,-13.7725,23.6894,1.63642,5.67119
234,0,8.55161,-1.66923,6.38366,45.0408,-1.72257,-11.715,49.7887,-8.08848,-13.4886,23.7333,-1.5272,-5.71524,8.8759,-0.959148,6.81937,24.15,3.92079,-3.8303,6.87804,4.41604,-13.9899,23.7333,1.5272,5.71524
235,0,8.60513,-1.64381,6.29117,45.2618,-1.49002,-11.4647,48.6014,-7.79196,-13.3658,23.7776,-1.41654,-5.75416,8.96413,-1.04502,7.13843,23.7918,3.80562,-3.88641,6.60317,4.44733,-14.2434,23.7776,1.41654,5.75416
236,0,8.6222,-1.62614,6.22683,45.4553,-1.26068,-11.2031,47.3626,-7.48681,-13.2932,23.8199,-1.30518,-5.78788,9.04759,-1.13684,7.4791,23.4294,3.69384,-3.93831,6.32393,4.47857,-14.5239,23.8199,1.30518,5.78788
237,0,8.60492,-1.61699,6.19351,45.6272,-1.0354,-10.9282,46.0743,-7.17298,-13.2731,23.8656,-1.1941,-5.81593,9.12766,-1.23217,7.83219,23.0689,3.58624,-3.98409,6.04183,4.50932,-14.8234,23.8656,1.1941,5.81593
238,0,8.55367,-1.61728,6.19455,45.7717,-0.815755,-10.641,44.738,-6.85198,-13.3068,23.9081,-1.08334,-5.83774,9.20618,-1.32783,8.18587,22.7039,3.48323,-4.02106,5.75897,4.54043,-15.1312,23.9081,1.08334,5.83774
239,0,8.47084,-1.62735,6.23124,45.8937,-0.601218,-10.3416,43.3556,-6.52562,-13.3942,23.9516,-0.973045,-5.8538,9.28394,-1.42075,8.52882,22.3388,3.38449,-4.04604,5.4763,4.5718,-15.4392,23.9516,0.973045,5.8538
240,0,8.35965,-1.64639,6.30056,45.9909,-0.393653,-10.0303,41.9306,-6.1953,-13.5302,23.992,-0.863936,-5.86366,9.36308,-1.50808,8.85056,21.9705,3.29108,-4.05857,5.19644,4.60321,-15.7364,23.992,0.863936,5.86366
241,0,8.22277,-1.67486,6.40412,46.0687,-0.193478,-9.70582,40.4651,-5.86229,-13.7153,24.0334,-0.757065,-5.86751,9.44479,-1.5875,9.14262,21.6037,3.2031,-4.05681,4.92114,4.63537,-16.0162,24.0334,0.757065,5.86751
242,0,8.0643,-1.71064,6.53426,46.1253,-0.00113815,-9.36822,38.9622,-5.52714,-13.9409,24.073,-0.651821,-5.86528,9.53004,-1.65708,9.39812,21.2362,3.12045,-4.04001,4.6518,4.66734,-16.2714,24.073,0.651821,5.86528
243,0,7.88795,-1.75295,6.68806,46.1623,0.181458,-9.01651,37.4249,-5.1904,-14.2031,24.1108,-0.549415,-5.85663,9.62028,-1.71514,9.61101,20.8684,3.04413,-4.00601,4.39013,4.69951,-16.4982,24.1108,0.549415,5.85663
244,0,7.69912,-1.80057,6.86104,46.1832,0.354703,-8.64999,35.8576,-4.85374,-14.4958,24.1481,-0.450161,-5.84257,9.71688,-1.76046,9.77698,20.5029,2.97399,-3.95767,4.13828,4.73081,-16.6903,24.1481,0.450161,5.84257
245,0,7.50142,-1.85153,7.04603,46.1883,0.516929,-8.26895,34.2643,-4.51753,-14.811,24.1837,-0.354266,-5.82267,9.81986,-1.79367,9.8985,20.1387,2.91006,-3.89426,3.89695,4.76155,-16.8494,24.1837,0.354266,5.82267
246,0,7.2998,-1.904,7.23631,46.1793,0.667797,-7.87237,32.6495,-4.18284,-15.1418,24.217,-0.262221,-5.7975,9.9303,-1.8142,9.97359,19.776,2.85266,-3.817,3.66726,4.79125,-16.9738,24.217,0.262221,5.7975
247,0,7.09839,-1.95727,7.4293,46.1576,0.805929,-7.46063,31.0181,-3.85065,-15.4827,24.2474,-0.174384,-5.76683,10.049,-1.82306,10.006,19.4147,2.80248,-3.72787,3.45057,4.81875,-17.0642,24.2474,0.174384,5.76683
248,0,6.90105,-2.00927,7.61757,46.1274,0.9312,-7.03422,29.3754,-3.52204,-15.826,24.2768,-0.0909218,-5.73176,10.176,-1.82088,9.99801,19.0568,2.75849,-3.62765,3.24691,4.84484,-17.1236,24.2768,0.0909218,5.73176
249,0,6.71249,-2.05838,7.79519,46.0899,1.04221,-6.59304,27.7275,-3.19788,-16.1638,24.304,-0.0128047,-5.69231,10.3115,-1.81017,9.95885,18.702,2.72195,-3.52052,3.0573,4.86803,-17.1563,24.304,0.0128047,5.69231
250,0,6.53425,-2.10446,7.9617,46.0488,1.13879,-6.13865,26.0801,-2.87979,-16.4939,24.3304,0.0600814,-5.64913,10.4552,-1.79246,9.8941,18.3514,2.69225,-3.40857,2.88119,4.88845,-17.167,24.3304,-0.0600814,5.64913
251,0,6.36968,-2.14621,8.11247,46.0047,1.22017,-5.67348,24.4399,-2.56866,-16.8079,24.3544,0.128006,-5.60256,10.6076,-1.76982,9.81125,18.0042,2.66859,-3.29473,2.71989,4.90625,-17.1593,24.3544,-0.128006,5.60256
252,0,6.22069,-2.18358,8.24732,45.9617,1.28562,-5.19982,22.8141,-2.26618,-17.1035,24.3773,0.189778,-5.55316,10.768,-1.74478,9.7196,17.6614,2.65198,-3.18256,2.57262,4.92058,-17.1401,24.3773,-0.189778,5.55316
253,0,6.08876,-2.21571,8.36315,45.9219,1.33497,-4.72155,21.2106,-1.97324,-17.3732,24.3988,0.245886,-5.50169,10.9361,-1.71955,9.62716,17.3229,2.6415,-3.07513,2.43912,4.93162,-17.1148,24.3988,-0.245886,5.50169
254,0,5.97278,-2.24282,8.46084,45.8872,1.3678,-4.24107,19.6356,-1.69055,-17.6176,24.4189,0.296006,-5.44824,11.1119,-1.69621,9.54162,16.9885,2.63688,-2.97595,2.31977,4.93955,-17.0864,24.4189,-0.296006,5.44824
255,0,5.87377,-2.26491,8.54044,45.8621,1.38453,-3.76326,18.0978,-1.41945,-17.8315,24.4399,0.340063,-5.3937,11.2946,-1.67736,9.47251,16.661,2.63768,-2.88848,2.21411,4.94427,-17.063,24.4399,-0.340063,5.3937
256,0,5.79102,-2.28315,8.60612,45.8448,1.38488,-3.29349,16.6051,-1.16046,-18.0135,24.4579,0.378,-5.33838,11.4842,-1.66415,9.42405,16.3359,2.6441,-2.81473,2.12194,4.94542,-17.0458,24.4579,-0.378,5.33838
257,0,5.72274,-2.29802,8.65964,45.8399,1.37038,-2.83531,15.1651,-0.913691,-18.1652,24.4763,0.410322,-5.2835,11.6803,-1.65769,9.40034,16.0167,2.65455,-2.75859,2.04333,4.94394,-17.0361,24.4763,-0.410322,5.2835
258,0,5.6674,-2.30969,8.70163,45.8487,1.34105,-2.39406,13.7857,-0.679261,-18.2823,24.4948,0.436494,-5.22903,11.8831,-1.65974,9.4079,15.7033,2.66949,-2.72211,1.97865,4.93945,-17.0376,24.4948,-0.436494,5.22903
259,0,5.62267,-2.31905,8.7353,45.8713,1.29823,-1.97335,12.4738,-0.457175,-18.3679,24.513,0.456592,-5.17553,12.092,-1.66949,9.44365,15.3947,2.68857,-2.70513,1.92704,4.93229,-17.0486,24.513,-0.456592,5.17553
260,0,5.5867,-2.32735,8.76515,45.9095,1.244,-1.57797,11.237,-0.246847,-18.4232,24.532,0.471529,-5.12374,12.3073,-1.68751,9.50972,15.0921,2.71049,-2.7104,1.88934,4.9226,-17.0679,24.532,-0.471529,5.12374
261,0,5.55774,-2.33595,8.79609,45.9627,1.17953,-1.21228,10.0821,-0.048851,-18.4498,24.551,0.480833,-5.07365,12.5291,-1.71262,9.60179,14.7944,2.73571,-2.73613,1.86524,4.91085,-17.0935,24.551,-0.480833,5.07365
262,0,5.53306,-2.34549,8.83039,46.031,1.10745,-0.877568,9.01406,0.137787,-18.4536,24.5708,0.485445,-5.026,12.7575,-1.74453,9.71868,14.5027,2.76308,-2.78411,1.85574,4.89677,-17.1223,24.5708,-0.485445,5.026
263,0,5.51128,-2.35687,8.8713,46.113,1.02996,-0.577236,8.0384,0.312628,-18.4347,24.5905,0.485023,-4.98112,12.9927,-1.7808,9.85145,14.2158,2.79315,-2.85188,1.86075,4.88046,-17.1485,24.5905,-0.485023,4.98112
264,0,5.4904,-2.37127,8.92305,46.2097,0.950039,-0.311911,7.15931,0.475618,-18.4013,24.6124,0.480263,-4.93944,13.2344,-1.82033,9.99602,13.9359,2.82509,-2.93758,1.88066,4.86175,-17.17,24.6124,-0.480263,4.93944
265,0,5.46787,-2.38993,8.99012,46.3182,0.86993,-0.0825247,6.37956,0.62579,-18.3568,24.635,0.471392,-4.90068,13.483,-1.86031,10.1421,13.6614,2.85916,-3.03902,1.91612,4.84074,-17.179,24.635,-0.471392,4.90068
266,0,5.44357,-2.41297,9.07287,46.4364,0.792943,0.110483,5.70257,0.762824,-18.3043,24.6579,0.459351,-4.86524,13.7378,-1.89908,10.2836,13.3919,2.89469,-3.1529,1.96758,4.81704,-17.1726,24.6579,-0.459351,4.86524
267,0,5.41498,-2.44159,9.17559,46.5632,0.721801,0.269578,5.12848,0.885189,-18.2518,24.6823,0.443934,-4.8334,13.9986,-1.93422,10.4118,13.1284,2.93219,-3.27632,2.03492,4.79052,-17.1467,24.6823,-0.443934,4.8334
268,0,5.38144,-2.47628,9.30001,46.6949,0.659353,0.394855,4.65862,0.991363,-18.2026,24.7059,0.426198,-4.80494,14.2652,-1.96372,10.5193,12.8694,2.9712,-3.4067,2.12028,4.76062,-17.0958,24.7059,-0.426198,4.80494
269,0,5.34033,-2.51677,9.44517,46.8303,0.60843,0.488929,4.29225,1.07937,-18.1594,24.7301,0.406257,-4.77998,14.5362,-1.98573,10.5995,12.6156,3.01165,-3.53892,2.22278,4.72739,-17.0192,24.7301,-0.406257,4.77998
270,0,5.29221,-2.563,9.61071,46.9688,0.571406,0.553474,4.02848,1.14756,-18.1248,24.7561,0.384656,-4.75833,14.8112,-1.9985,10.6459,12.369,3.05351,-3.67055,2.34388,4.69042,-16.9136,24.7561,-0.384656,4.75833
271,0,5.23115,-2.6174,9.80529,47.1059,0.550221,0.591159,3.86199,1.19399,-18.1121,24.7814,0.361941,-4.73982,15.0888,-2.0005,10.6532,12.1267,3.09679,-3.79877,2.48406,4.64935,-16.7764,24.7814,-0.361941,4.73982
272,0,5.16077,-2.67531,10.0122,47.2401,0.546926,0.604455,3.79461,1.21683,-18.1067,24.8057,0.338858,-4.72397,15.3675,-1.99184,10.6217,11.8896,3.14098,-3.92024,2.64434,4.60376,-16.6116,24.8057,-0.338858,4.72397
273,0,5.07665,-2.73714,10.2327,47.3691,0.562418,0.596276,3.82021,1.21535,-18.1148,24.8291,0.315321,-4.71104,15.6462,-1.97201,10.5495,11.6579,3.18623,-4.03397,2.82591,4.55358,-16.4189,24.8291,-0.315321,4.71104
274,0,4.97412,-2.80482,10.4738,47.493,0.59813,0.568371,3.93166,1.18775,-18.146,24.8524,0.292447,-4.70079,15.923,-1.94086,10.436,11.4329,3.2316,-4.13748,3.02956,4.4986,-16.2003,24.8524,-0.292447,4.70079
275,0,4.85461,-2.8732,10.717,47.6084,0.653487,0.522777,4.12826,1.13439,-18.1847,24.8729,0.270421,-4.69214,16.196,-1.89926,10.2843,11.2126,3.27715,-4.22915,3.25643,4.43863,-15.9593,24.8729,-0.270421,4.69214
276,0,4.71466,-2.94214,10.9618,47.7153,0.728484,0.461404,4.40268,1.0543,-18.2326,24.8918,0.249464,-4.68495,16.4634,-1.84918,10.1014,10.9991,3.32193,-4.31059,3.50802,4.37441,-15.7017,24.8918,-0.249464,4.68495
277,0,4.55074,-3.01101,11.2059,47.8134,0.822484,0.386072,4.74722,0.949272,-18.2917,24.9089,0.230368,-4.67938,16.7235,-1.79124,9.88961,10.7932,3.36536,-4.3815,3.78611,4.30509,-15.4303,24.9089,-0.230368,4.67938
278,0,4.36593,-3.075,11.4323,47.8997,0.933663,0.296208,5.15978,0.819906,-18.3433,24.9213,0.213324,-4.67428,16.9744,-1.72821,9.6589,10.5927,3.40645,-4.44224,4.09216,4.23205,-15.1526,24.9213,-0.213324,4.67428
279,0,4.1554,-3.13448,11.6424,47.9759,1.05995,0.194119,5.63062,0.669011,-18.3922,24.9306,0.198855,-4.66951,17.2134,-1.66229,9.41725,10.4006,3.44446,-4.49625,4.42788,4.15457,-14.8736,24.9306,-0.198855,4.66951
280,0,3.91975,-3.18826,11.8322,48.0419,1.19926,0.0780527,6.15238,0.498209,-18.4336,24.9362,0.187201,-4.66462,17.4391,-1.59578,9.17304,10.2175,3.47823,-4.54517,4.79579,4.07358,-14.5983,24.9362,-0.187201,4.66462
281,0,3.66326,-3.23119,11.9834,48.0972,1.34823,-0.051899,6.722,0.311084,-18.4473,24.9374,0.178415,-4.6591,17.6483,-1.53056,8.93328,10.0437,3.50689,-4.59151,5.19716,3.98992,-14.3311,24.9374,-0.178415,4.6591
282,0,3.38526,-3.26465,12.1011,48.1424,1.5041,-0.195969,7.32993,0.11085,-18.4372,24.9344,0.173222,-4.65251,17.8391,-1.46987,8.70983,9.88118,3.52891,-4.63829,5.63488,3.90369,-14.0792,24.9344,-0.173222,4.65251
283,0,3.09209,-3.28437,12.1705,48.1756,1.66292,-0.354982,7.97184,-0.0989517,-18.3872,24.9246,0.171367,-4.64413,18.008,-1.41567,8.51009,9.72859,3.54384,-4.68988,6.1107,3.81519,-13.8445,24.9246,-0.171367,4.64413
284,0,2.78716,-3.29071,12.1928,48.1991,1.8219,-0.530467,8.63973,-0.315356,-18.2933,24.9101,0.173328,-4.63373,18.1524,-1.37,8.34159,9.58947,3.54997,-4.74798,6.62706,3.7251,-13.6312,24.9101,-0.173328,4.63373
285,0,2.47658,-3.28274,12.1648,48.2134,1.9776,-0.722724,9.32708,-0.534514,-18.1506,24.8913,0.178934,-4.621,18.2685,-1.33441,8.21019,9.46573,3.54661,-4.81572,7.18552,3.63351,-13.4413,24.8913,-0.178934,4.621
286,0,2.16722,-3.25961,12.0834,48.2153,2.12674,-0.930782,10.028,-0.753104,-17.9524,24.8652,0.188425,-4.60544,18.3527,-1.3107,8.12259,9.35553,3.53311,-4.89642,7.78832,3.54008,-13.2758,24.8652,-0.188425,4.60544
287,0,1.86579,-3.22118,11.9481,48.2042,2.26724,-1.15576,10.7359,-0.96839,-17.6954,24.8317,0.202337,-4.587,18.4009,-1.29921,8.08011,9.2603,3.50792,-4.99175,8.43706,3.44529,-13.1337,24.8317,-0.202337,4.587
288,0,1.57964,-3.16745,11.7588,48.1831,2.39602,-1.39632,11.4447,-1.17788,-17.3764,24.7945,0.219878,-4.56442,18.4078,-1.30093,8.08647,9.18493,3.471,-5.10098,9.13272,3.34918,-13.0165,24.7945,-0.219878,4.56442
289,0,1.31494,-3.10024,11.5215,48.148,2.51256,-1.65007,12.1479,-1.37947,-16.9995,24.7511,0.241598,-4.53865,18.3688,-1.31617,8.14281,9.12797,3.42155,-5.22762,9.8764,3.25043,-12.9207,24.7511,-0.241598,4.53865
290,0,1.07829,-3.02017,11.2383,48.0982,2.61505,-1.91463,12.8399,-1.57113,-16.5678,24.7021,0.267407,-4.50859,18.2783,-1.3447,8.24819,9.09124,3.3593,-5.3707,10.6693,3.14912,-12.8441,24.7021,-0.267407,4.50859
291,0,0.874123,-2.92839,10.913,48.0314,2.70316,-2.18535,13.5142,-1.75094,-16.0851,24.6475,0.296963,-4.47436,18.1295,-1.38654,8.40263,9.07563,3.2843,-5.52963,11.5112,3.0441,-12.7853,24.6475,-0.296963,4.47436
292,0,0.707279,-2.82749,10.5545,47.9455,2.7774,-2.45788,14.1656,-1.91837,-15.5622,24.5869,0.33027,-4.43591,17.9158,-1.44042,8.60133,9.0813,3.19665,-5.70257,12.4016,2.93512,-12.7395,24.5869,-0.33027,4.43591
293,0,0.579293,-2.71921,10.1688,47.8393,2.83851,-2.72789,14.7887,-2.07185,-15.0095,24.5217,0.367317,-4.39303,17.6302,-1.50616,8.84347,9.11026,3.09643,-5.88829,13.34,2.82083,-12.7041,24.5217,-0.367317,4.39303
294,0,0.492723,-2.60572,9.76353,47.7124,2.8874,-2.98895,15.3784,-2.21012,-14.4384,24.4539,0.408133,-4.34523,17.2643,-1.58207,9.12266,9.16465,2.98373,-6.08388,14.3247,2.7011,-12.6745,24.4539,-0.408133,4.34523
295,0,0.446693,-2.4899,9.34884,47.5604,2.92577,-3.23647,15.9304,-2.33256,-13.864,24.3809,0.452261,-4.29324,16.8105,-1.66774,9.43723,9.2426,2.85946,-6.28726,15.3545,2.57499,-12.649,24.3809,-0.452261,4.29324
296,0,0.440691,-2.37419,8.93357,47.3834,2.95567,-3.46367,16.4405,-2.43867,-13.3005,24.3053,0.499595,-4.2368,16.2607,-1.76133,9.78019,9.3464,2.72417,-6.49529,16.4269,2.4423,-12.6221,24.3053,-0.499595,4.2368
297,0,0.4733,-2.2606,8.52491,47.179,2.97866,-3.66654,16.9061,-2.5276,-12.7612,24.226,0.549959,-4.17577,15.6069,-1.86192,10.148,9.47545,2.5782,-6.70563,17.54,2.30295,-12.5905,24.226,-0.549959,4.17577
298,0,0.541408,-2.15158,8.13185,46.9489,2.9972,-3.84054,17.3241,-2.59906,-12.2597,24.1467,0.603437,-4.11058,14.8412,-1.96818,10.5355,9.63322,2.42202,-6.91543,18.6911,2.1569,-12.552,24.1467,-0.603437,4.11058
299,0,0.6432,-2.04863,7.75991,46.6907,3.01321,-3.98155,17.6932,-2.65298,-11.8064,24.0657,0.659367,-4.04158,13.9582,-2.0781,10.9354,9.81819,2.25675,-7.12342,19.8783,2.00424,-12.5,24.0657,-0.659367,4.04158
300,0,0.774591,-1.95374,7.41653,46.4028,3.02812,-4.08568,18.0115,-2.68828,-11.414,23.9825,0.717875,-3.96851,12.9517,-2.1905,11.3431,10.0299,2.0827,-7.32755,21.0985,1.84533,-12.4317,23.9825,-0.717875,3.96851
301,0,0.932278,-1.86709,7.10246,46.0912,3.04463,-4.1519,18.2792,-2.70633,-11.0858,23.9031,0.778593,-3.89254,11.8195,-2.30406,11.7538,10.2742,1.89963,-7.52662,22.3492,1.68152,-12.3451,23.9031,-0.778593,3.89254
302,0,1.11373,-1.78994,6.82245,45.7514,3.06296,-4.17957,18.4969,-2.70727,-10.8279,23.8226,0.841036,-3.81286,10.5616,-2.41559,12.1559,10.5465,1.70916,-7.71844,23.6284,1.5133,-12.2318,23.8226,-0.841036,3.81286
303,0,1.31552,-1.72099,6.57191,45.387,3.08533,-4.16755,18.6659,-2.69124,-10.6385,23.7442,0.905593,-3.7306,9.18143,-2.52416,12.5462,10.8501,1.51039,-7.9063,24.9342,1.3406,-12.0901,23.7442,-0.905593,3.7306
304,0,1.53291,-1.66123,6.35455,44.9999,3.11232,-4.11756,18.7878,-2.6603,-10.5205,23.6684,0.97168,-3.64576,7.68767,-2.6262,12.9119,11.1857,1.30382,-8.08893,26.2648,1.16471,-11.9115,23.6684,-0.97168,3.64576
305,0,1.76509,-1.60846,6.16245,44.5934,3.14481,-4.03041,18.8654,-2.61461,-10.4655,23.5971,1.03901,-3.55931,6.09223,-2.72005,13.2472,11.5556,1.08936,-8.26958,27.6188,0.985822,-11.6946,23.5971,-1.03901,3.55931
306,0,2.00733,-1.56201,5.99323,44.1685,3.18235,-3.91006,18.9017,-2.55604,-10.469,23.5291,1.10731,-3.47082,4.41463,-2.80239,13.5406,11.9593,0.867123,-8.44872,28.9956,0.80419,-11.4322,23.5291,-1.10731,3.47082
307,0,2.25901,-1.52099,5.84372,43.7293,3.22561,-3.76026,18.9008,-2.48706,-10.5224,23.4661,1.17633,-3.3813,2.67752,-2.87102,13.7847,12.3982,0.636883,-8.63119,30.3932,0.61878,-11.1214,23.4661,-1.17633,3.3813
308,0,2.51731,-1.48235,5.70281,43.2771,3.27374,-3.58516,18.8673,-2.4081,-10.6115,23.4066,1.24595,-3.29115,0.909412,-2.92397,13.9725,12.8717,0.398115,-8.8191,31.8109,0.429737,-10.7604,23.4066,-1.24595,3.29115
309,0,2.78019,-1.44611,5.57058,42.8178,3.32621,-3.39134,18.8053,-2.32191,-10.7304,23.3533,1.31595,-3.20069,-0.855997,-2.958,14.0932,13.3823,0.151012,-9.01677,33.2481,0.234877,-10.3437,23.3533,-1.31595,3.20069
310,0,3.0465,-1.40975,5.43785,42.3542,3.38122,-3.1834,18.7199,-2.22954,-10.8641,23.3059,1.38539,-3.11027,-2.58526,-2.97155,14.1411,13.9298,-0.104017,-9.22723,34.7022,0.0335221,-9.87224,23.3059,-1.38539,3.11027
311,0,3.31445,-1.37293,5.30338,41.8908,3.43813,-2.97008,18.6163,-2.13342,-11.0032,23.2655,1.4549,-3.02024,-4.24157,-2.96453,14.1163,14.5151,-0.367588,-9.45547,36.1726,-0.178434,-9.34807,23.2655,-1.4549,3.02024
312,0,3.58355,-1.33414,5.16163,41.4285,3.49545,-2.75685,18.4992,-2.03534,-11.1357,23.2295,1.52368,-2.93095,-5.79024,-2.93545,14.0133,15.1348,-0.63836,-9.70333,37.6558,-0.401964,-8.77387,23.2295,-1.52368,2.93095
313,0,3.85357,-1.29294,5.01104,40.9743,3.55125,-2.55067,18.3733,-1.93662,-11.2526,23.2019,1.5912,-2.84264,-7.20034,-2.88505,13.8345,15.7921,-0.915567,-9.97416,39.1487,-0.640353,-8.15764,23.2019,-1.5912,2.84264
314,0,4.12227,-1.24863,4.84899,40.5284,3.60444,-2.35761,18.2436,-1.83858,-11.3461,23.1795,1.65746,-2.75571,-8.44336,-2.81397,13.5819,16.4823,-1.19795,-10.2686,40.6471,-0.895701,-7.50729,23.1795,-1.65746,2.75571
315,0,4.39054,-1.20219,4.67905,40.0937,3.65353,-2.18365,18.1132,-1.74283,-11.4127,23.163,1.72201,-2.67005,-9.49867,-2.7237,13.2603,17.2039,-1.48311,-10.5877,42.1452,-1.17089,-6.83499,23.163,-1.72201,2.67005
316,0,4.6565,-1.1534,4.50042,39.6733,3.69757,-2.03311,17.9852,-1.65067,-11.4469,23.1533,1.78426,-2.58624,-10.3501,-2.61569,12.8743,17.956,-1.76879,-10.9297,43.6373,-1.46603,-6.15431,23.1533,-1.78426,2.58624
317,0,4.92132,-1.10374,4.31852,39.2666,3.73609,-1.9099,17.8621,-1.5628,-11.45,23.1478,1.84471,-2.50416,-10.9889,-2.49221,12.4315,18.733,-2.05249,-11.2916,45.1159,-1.78186,-5.4813,23.1478,-1.84471,2.50416
318,0,5.18341,-1.05293,4.13229,38.8762,3.7682,-1.81509,17.7456,-1.47997,-11.4211,23.1485,1.90227,-2.4237,-11.4114,-2.35621,11.942,19.5338,-2.33019,-11.6689,46.5728,-2.11706,-4.83414,23.1485,-1.90227,2.4237
319,0,5.44269,-1.00339,3.95064,38.5036,3.79359,-1.75122,17.6365,-1.40355,-11.3661,23.1561,1.9567,-2.34485,-11.6209,-2.21022,11.4145,20.3564,-2.59837,-12.057,48.0002,-2.46949,-4.23017,23.1561,-1.9567,2.34485
320,0,5.69787,-0.956372,3.77818,38.144,3.81212,-1.71678,17.5343,-1.33353,-11.2907,23.1661,2.00756,-2.26772,-11.6244,-2.05758,10.8608,21.1925,-2.85259,-12.4479,49.3884,-2.8346,-3.68868,23.1661,-2.00756,2.26772
321,0,5.94976,-0.912923,3.61873,37.8005,3.82484,-1.71079,17.4389,-1.27065,-11.2004,23.1819,2.05515,-2.19212,-11.4327,-1.90132,10.2918,22.0422,-3.09005,-12.8345,50.7292,-3.20754,-3.22466,23.1819,-2.05515,2.19212
322,0,6.19615,-0.875184,3.4802,37.4693,3.8311,-1.73135,17.3484,-1.21472,-11.1063,23.2007,2.09868,-2.11757,-11.0617,-1.74566,9.72282,22.8993,-3.30591,-13.2082,52.0131,-3.58214,-2.85506,23.2007,-2.09868,2.11757
323,0,6.43787,-0.843816,3.36501,37.1483,3.83203,-1.77285,17.2608,-1.16557,-11.0147,23.2224,2.13809,-2.04432,-10.5287,-1.59411,9.16691,23.7604,-3.49798,-13.5611,53.2323,-3.95057,-2.59059,23.2224,-2.13809,2.04432
324,0,6.67403,-0.82048,3.2793,36.8367,3.82802,-1.83422,17.175,-1.12388,-10.9346,23.2468,2.17313,-1.97173,-9.85359,-1.45003,8.63673,24.6223,-3.66252,-13.8853,54.3786,-4.30631,-2.4402,23.2468,-2.17313,1.97173
325,0,6.90376,-0.805425,3.224,36.5327,3.81904,-1.90916,17.0879,-1.08815,-10.8727,23.2745,2.20302,-1.89977,-9.05803,-1.31721,8.14663,25.4821,-3.79738,-14.1743,55.4448,-4.64173,-2.40804,23.2745,-2.20302,1.89977
326,0,7.12658,-0.800012,3.20412,36.2323,3.80594,-1.99353,16.9972,-1.05858,-10.838,23.3032,2.22794,-1.82812,-8.16472,-1.19929,7.71046,26.3354,-3.90093,-14.4236,56.4252,-4.95202,-2.4959,23.3032,-2.22794,1.82812
327,0,7.34301,-0.803432,3.21668,35.9344,3.7895,-2.08262,16.9014,-1.03401,-10.8328,23.3334,2.2482,-1.75615,-7.19778,-1.09903,7.33887,27.1801,-3.97271,-14.6273,57.3134,-5.23065,-2.70044,23.3334,-2.2482,1.75615
328,0,7.55208,-0.816219,3.26365,35.6362,3.7692,-2.17194,16.7979,-1.01366,-10.8632,23.3641,2.26284,-1.68366,-6.17908,-1.01842,7.03964,28.0129,-4.01105,-14.7837,58.1051,-5.47459,-3.01348,23.3641,-2.26284,1.68366
329,0,7.75392,-0.837489,3.34177,35.337,3.74564,-2.25819,16.6853,-0.996425,-10.9295,23.3959,2.27227,-1.61032,-5.13052,-0.959127,6.81929,28.8328,-4.01691,-14.892,58.7971,-5.68138,-3.42418,23.3959,-2.27227,1.61032
330,0,7.94916,-0.865286,3.44385,35.0333,3.71887,-2.33571,16.5627,-0.981516,-11.0281,23.427,2.27592,-1.5363,-4.07348,-0.921564,6.67958,29.6361,-3.99047,-14.9519,59.3865,-5.84903,-3.91881,23.427,-2.27592,1.5363
331,0,8.13767,-0.899364,3.56896,34.7246,3.68876,-2.4029,16.4288,-0.968049,-11.1609,23.4576,2.27428,-1.4605,-3.02424,-0.904768,6.61709,30.4223,-3.93305,-14.9667,59.8725,-5.97976,-4.47813,23.4576,-2.27428,1.4605
332,0,8.32005,-0.937184,3.70777,34.4108,3.65518,-2.45603,16.2831,-0.954959,-11.3209,23.489,2.26668,-1.38321,-2.0001,-0.907856,6.62858,31.1912,-3.84546,-14.9384,60.2537,-6.07399,-5.08601,23.489,-2.26668,1.38321
333,0,8.49636,-0.977093,3.8542,34.0874,3.61784,-2.49434,16.1258,-0.941035,-11.5031,23.5168,2.25365,-1.30389,-1.01285,-0.929277,6.70828,31.9384,-3.73008,-14.8725,60.5314,-6.13578,-5.7248,23.5168,-2.25365,1.30389
334,0,8.66812,-1.0167,3.99945,33.7588,3.57655,-2.51681,15.9575,-0.926311,-11.6987,23.5459,2.23478,-1.22287,-0.0720942,-0.965189,6.84183,32.6679,-3.58854,-14.772,60.7062,-6.16657,-6.37246,23.5459,-2.23478,1.22287
335,0,8.83479,-1.05519,4.1406,33.4222,3.53071,-2.52239,15.7782,-0.909927,-11.9048,23.5736,2.21012,-1.1395,0.816756,-1.01263,7.01815,33.3773,-3.4232,-14.6437,60.7813,-6.17138,-7.01124,23.5736,-2.21012,1.1395
336,0,8.9982,-1.08932,4.26567,33.0777,3.47986,-2.51203,15.5897,-0.891309,-12.1092,23.5997,2.17964,-1.05374,1.64925,-1.06859,7.22594,34.0665,-3.23637,-14.4927,60.7588,-6.15405,-7.62675,23.5997,-2.17964,1.05374
337,0,9.15849,-1.11807,4.37102,32.7261,3.42419,-2.48757,15.393,-0.870335,-12.3056,23.6246,2.14393,-0.966125,2.42529,-1.12898,7.44994,34.7359,-3.03132,-14.3249,60.6422,-6.11877,-8.20223,23.6246,-2.14393,0.966125
338,0,9.31622,-1.1401,4.4517,32.3677,3.36232,-2.4499,15.189,-0.846508,-12.4883,23.6481,2.10263,-0.875681,3.14441,-1.18983,7.67542,35.3858,-2.80999,-14.145,60.4353,-6.0687,-8.72466,23.6481,-2.10263,0.875681
339,0,9.47264,-1.15417,4.50325,32.0031,3.29438,-2.40259,14.9801,-0.820218,-12.6482,23.6699,2.05559,-0.783928,3.80967,-1.24909,7.8948,36.0161,-2.57592,-13.961,60.1419,-6.00866,-9.18773,23.6699,-2.05559,0.783928
340,0,9.6276,-1.16015,4.52512,31.6337,3.21976,-2.34769,14.767,-0.791605,-12.7833,23.6909,2.00328,-0.689765,4.42399,-1.30236,8.09176,36.6278,-2.33114,-13.7742,59.7659,-5.9396,-9.5815,23.6909,-2.00328,0.689765
341,0,9.782,-1.1574,4.51508,31.2618,3.13849,-2.28878,14.5515,-0.760589,-12.8877,23.7123,1.94598,-0.594422,4.99161,-1.34745,8.25834,37.2224,-2.07927,-13.5907,59.3117,-5.86483,-9.90269,23.7123,-1.94598,0.594422
342,0,9.93645,-1.14643,4.47488,30.8863,3.04998,-2.2287,14.3352,-0.727642,-12.9599,23.7317,1.88357,-0.49748,5.51608,-1.38151,8.38406,37.7975,-1.82211,-13.412,58.7825,-5.78471,-10.1473,23.7317,-1.88357,0.49748
343,0,10.0914,-1.12757,4.40583,30.5083,2.95377,-2.17075,14.1195,-0.693056,-12.9977,23.7498,1.81564,-0.399855,6.00141,-1.40299,8.46332,38.3537,-1.56188,-13.243,58.1825,-5.70117,-10.3173,23.7498,-1.81564,0.399855
344,0,10.2466,-1.10197,4.31202,30.1294,2.85088,-2.11753,13.9046,-0.657107,-13.0037,23.7675,1.7435,-0.30161,6.45066,-1.40954,8.48746,38.8912,-1.30167,-13.0833,57.5148,-5.61277,-10.4112,23.7675,-1.7435,0.30161
345,0,10.4027,-1.07022,4.19568,29.7513,2.74072,-2.07125,13.6922,-0.620149,-12.9764,23.7853,1.66651,-0.203554,6.86636,-1.40101,8.45602,39.4102,-1.04285,-12.9342,56.782,-5.51937,-10.4355,23.7853,-1.66651,0.203554
346,0,10.5595,-1.03447,4.06462,29.3751,2.6241,-2.03512,13.4826,-0.583021,-12.9216,23.8041,1.58534,-0.105993,7.24995,-1.37528,8.36109,39.9103,-0.787063,-12.7953,55.9867,-5.41931,-10.3909,23.8041,-1.58534,0.105993
347,0,10.7165,-0.996168,3.92416,28.9972,2.50117,-2.00857,13.2759,-0.54523,-12.8454,23.8194,1.49991,-0.00957428,7.60305,-1.33325,8.20588,40.3867,-0.536331,-12.6667,55.1314,-5.31085,-10.2849,23.8194,-1.49991,0.00957428
348,0,10.8742,-0.956644,3.77917,28.6251,2.3728,-1.99426,13.0727,-0.508144,-12.7493,23.8387,1.41046,0.0848674,7.92628,-1.27421,7.9877,40.845,-0.291051,-12.5458,54.2175,-5.19169,-10.1216,23.8387,-1.41046,-0.0848674
349,0,11.0319,-0.918291,3.63843,28.253,2.23957,-1.99128,12.8724,-0.471118,-12.6432,23.8561,1.31745,0.176747,8.2183,-1.19983,7.71248,41.2786,-0.0531047,-12.4312,53.2465,-5.05913,-9.91148,23.8561,-1.31745,-0.176747
350,0,11.1896,-0.881781,3.50442,27.8852,2.10233,-1.99974,12.6758,-0.434975,-12.5305,23.8753,1.2211,0.265879,8.4794,-1.11041,7.38108,41.6896,0.17782,-12.3182,52.2193,-4.90995,-9.6606,23.8753,-1.2211,-0.265879
351,0,11.3465,-0.849311,3.38519,27.5178,1.96195,-2.01875,12.4815,-0.399563,-12.4194,23.8927,1.12167,0.351152,8.70797,-1.00893,7.0044,42.0737,0.400516,-12.2059,51.1368,-4.74293,-9.38151,23.8927,-1.12167,-0.351152
352,0,11.5028,-0.821509,3.28308,27.1559,1.81948,-2.04627,12.2903,-0.364816,-12.3143,23.9133,1.01965,0.431722,8.9028,-0.897449,6.58985,42.4342,0.615124,-12.0894,49.999,-4.55497,-9.08473,23.9133,-1.01965,-0.431722
353,0,11.6584,-0.799941,3.20386,26.794,1.67597,-2.08199,12.1019,-0.331802,-12.2223,23.9313,0.915103,0.507373,9.0629,-0.77857,6.14701,42.7648,0.821439,-11.966,48.8069,-4.3445,-8.78072,23.9313,-0.915103,-0.507373
354,0,11.8129,-0.784621,3.14757,26.4383,1.53214,-2.1226,11.9157,-0.299676,-12.1461,23.9535,0.808564,0.577249,9.18742,-0.656382,5.69104,43.0715,1.01958,-11.8324,47.5602,-4.1106,-8.48489,23.9535,-0.808564,-0.577249
355,0,11.9663,-0.776756,3.11867,26.0838,1.38884,-2.16589,11.732,-0.268536,-12.0919,23.9745,0.70022,0.640785,9.2754,-0.534324,5.23481,43.3486,1.21018,-11.6855,46.2594,-3.85284,-8.21165,23.9745,-0.70022,-0.640785
356,0,12.1189,-0.775989,3.11586,25.7318,1.24746,-2.20991,11.5509,-0.238609,-12.0609,23.9958,0.590874,0.697332,9.3269,-0.415732,4.79087,43.5972,1.39281,-11.5217,44.9045,-3.57082,-7.97278,23.9958,-0.590874,-0.697332
357,0,12.2707,-0.78188,3.1375,25.3841,1.10845,-2.25162,11.3722,-0.209398,-12.0548,24.0194,0.480767,0.746767,9.34162,-0.304504,4.37395,43.8196,1.56866,-11.3376,43.496,-3.26509,-7.78412,24.0194,-0.480767,-0.746767
358,0,12.4227,-0.794117,3.18246,25.039,0.973179,-2.28897,11.1971,-0.181435,-12.0738,24.0431,0.370367,0.787816,9.32064,-0.204106,3.99722,44.0145,1.73715,-11.1334,42.0348,-2.9384,-7.65667,24.0431,-0.370367,-0.787816
359,0,12.575,-0.811465,3.24619,24.6951,0.84147,-2.31962,11.0257,-0.154412,-12.1152,24.0658,0.259717,0.821242,9.26538,-0.118259,3.6748,44.1815,1.89978,-10.9067,40.522,-2.59289,-7.60362,24.0658,-0.259717,-0.821242
360,0,12.7282,-0.833434,3.32688,24.3557,0.714639,-2.34307,10.8586,-0.128217,-12.1786,24.0907,0.149785,0.846081,9.1769,-0.0489792,3.41443,44.3252,2.05578,-10.6571,38.9596,-2.23147,-7.63278,24.0907,-0.149785,-0.846081
361,0,12.8832,-0.858225,3.41792,24.0169,0.593662,-2.35569,10.6964,-0.103149,-12.2605,24.114,0.0409544,0.862136,9.05875,0.0012765,3.22546,44.443,2.20578,-10.384,37.349,-1.85849,-7.75143,24.114,-0.0409544,-0.862136
362,0,13.0405,-0.885181,3.51689,23.6834,0.47825,-2.35768,10.5401,-0.0789058,-12.3576,24.14,-0.0666143,0.869619,8.91341,0.0311872,3.11295,44.5415,2.34981,-10.0879,35.6945,-1.47735,-7.96316,24.14,0.0666143,-0.869619
363,0,13.2012,-0.91242,3.61689,23.3496,0.369819,-2.34763,10.3902,-0.0559788,-12.4649,24.1634,-0.172108,0.868115,8.74436,0.0399421,3.08002,44.6172,2.48715,-9.77045,33.999,-1.09285,-8.26886,24.1634,0.172108,-0.868115
364,0,13.3655,-0.938817,3.71376,23.0197,0.268391,-2.32397,10.2475,-0.0339563,-12.5792,24.1882,-0.275148,0.857747,8.5561,0.0284185,3.12337,44.6768,2.61774,-9.43205,32.2681,-0.709371,-8.66269,24.1882,0.275148,-0.857747
365,0,13.5341,-0.963674,3.80497,22.6927,0.174099,-2.2891,10.1127,-0.0133159,-12.6965,24.2135,-0.37565,0.838731,8.35316,-0.00359608,3.24378,44.7219,2.7411,-9.07621,30.5079,-0.33195,-9.14118,24.2135,0.37565,-0.838731
366,0,13.7078,-0.98547,3.88492,22.3669,0.0877544,-2.2415,9.9863,0.00600694,-12.8123,24.2376,-0.472564,0.811648,8.13985,-0.0531227,3.43,44.7538,2.85604,-8.70437,28.7255,0.0360719,-9.6901,24.2376,0.472564,-0.811648
367,0,13.8868,-1.0038,3.95216,22.0436,0.00904021,-2.18334,9.86903,0.0236814,-12.9233,24.2618,-0.566102,0.776597,7.92127,-0.118559,3.67593,44.7765,2.96205,-8.3193,26.9289,0.390559,-10.2988,24.2618,0.566102,-0.776597
368,0,14.0716,-1.01746,4.00226,21.7201,-0.0612572,-2.11526,9.76127,0.0395903,-13.0246,24.2834,-0.655521,0.733459,7.70143,-0.196587,3.96899,44.7902,3.05716,-7.92345,25.1267,0.729298,-10.9519,24.2834,0.655521,-0.733459
369,0,14.2619,-1.02707,4.0375,21.3999,-0.123425,-2.03945,9.66284,0.0535303,-13.1163,24.3061,-0.740491,0.683494,7.48667,-0.283439,4.29494,44.8024,3.14084,-7.51958,23.3304,1.0493,-11.6276,24.3061,0.740491,-0.683494
370,0,14.458,-1.03185,4.05502,21.0816,-0.177542,-1.95715,9.57434,0.0657526,-13.195,24.3286,-0.820705,0.626805,7.27849,-0.375485,4.64007,44.8144,3.21123,-7.11005,21.5497,1.34983,-12.3114,24.3286,0.820705,-0.626805
371,0,14.66,-1.03218,4.05622,20.7644,-0.223921,-1.87128,9.49577,0.0757279,-13.2606,24.3502,-0.896112,0.564706,7.08244,-0.468496,4.98847,44.8285,3.26777,-6.6981,19.7961,1.6301,-12.9799,24.3502,0.896112,-0.564706
372,0,14.8671,-1.02813,4.04139,20.4466,-0.262001,-1.78414,9.42676,0.082937,-13.3105,24.3694,-0.966169,0.497185,6.9008,-0.558301,5.32448,44.8464,3.3087,-6.28676,18.0821,1.8896,-13.6154,24.3694,0.966169,-0.497185
373,0,15.0793,-1.02116,4.01582,20.1307,-0.292385,-1.69708,9.36747,0.0877211,-13.3491,24.3885,-1.03078,0.425055,6.73585,-0.641644,5.63599,44.873,3.3332,-5.8786,16.4189,2.12934,-14.2001,24.3885,1.03078,-0.425055
374,0,15.2956,-1.01189,3.98182,19.8171,-0.315423,-1.61462,9.31734,0.0897389,-13.3753,24.4083,-1.08964,0.349549,6.58867,-0.714315,5.90732,44.9112,3.34067,-5.47547,14.8179,2.35057,-14.7164,24.4083,1.08964,-0.349549
375,0,15.5155,-1.00076,3.94101,19.5027,-0.331482,-1.53814,9.27614,0.0888658,-13.3898,24.4257,-1.14289,0.27094,6.46064,-0.772904,6.12588,44.9601,3.33077,-5.08053,13.2903,2.55498,-15.1515,24.4257,1.14289,-0.27094
376,0,15.7385,-0.989991,3.90151,19.1896,-0.341219,-1.47041,9.24372,0.0848547,-13.3981,24.4427,-1.19057,0.19036,6.35122,-0.815413,6.28433,45.0224,3.30407,-4.69534,11.8463,2.74378,-15.4929,24.4427,1.19057,-0.19036
377,0,15.9638,-0.979663,3.86362,18.8784,-0.344483,-1.41447,9.21997,0.0775182,-13.3988,24.46,-1.23214,0.1084,6.25957,-0.839264,6.3732,45.0998,3.26058,-4.32033,10.4945,2.91934,-15.7343,24.46,1.23214,-0.1084
378,0,16.19,-0.971585,3.83399,18.5657,-0.342296,-1.37096,9.20408,0.0665698,-13.3975,24.4741,-1.26818,0.0260655,6.18439,-0.843448,6.38879,45.1883,3.20198,-3.95883,9.24226,3.08318,-15.8708,24.4741,1.26818,-0.0260655
379,0,16.4171,-0.965969,3.81339,18.2566,-0.334789,-1.34325,9.19698,0.0517358,-13.3927,24.4898,-1.2984,-0.0558686,6.12347,-0.828333,6.33248,45.2917,3.13012,-3.60933,8.09536,3.23582,-15.9046,24.4898,1.2984,0.0558686
380,0,16.6437,-0.964495,3.80798,17.9464,-0.322776,-1.33122,9.19752,0.0333913,-13.3912,24.5024,-1.32301,-0.136849,6.07551,-0.793855,6.20399,45.4039,3.04648,-3.27449,7.05842,3.37952,-15.8384,24.5024,1.32301,0.136849
381,0,16.8694,-0.967806,3.82013,17.6396,-0.307056,-1.33725,9.20712,0.0107502,-13.3921,24.5158,-1.34251,-0.21604,6.03709,-0.742331,6.01185,45.5264,2.95448,-2.95342,6.13369,3.51373,-15.683,24.5158,1.34251,0.21604
382,0,17.0931,-0.975997,3.85018,17.3345,-0.288197,-1.36179,9.22549,-0.0160065,-13.3965,24.528,-1.35703,-0.292603,6.00597,-0.675796,5.76354,45.6542,2.85686,-2.64719,5.32225,3.639,-15.4469,24.528,1.35703,0.292603
383,0,17.3142,-0.990253,3.90247,17.032,-0.266626,-1.404,9.25336,-0.0471503,-13.4085,24.5396,-1.36667,-0.366204,5.97839,-0.598221,5.47373,45.7843,2.75671,-2.35527,4.62245,3.75486,-15.1501,24.5396,1.36667,0.366204
384,0,17.5325,-1.00968,3.97371,16.7334,-0.242764,-1.46559,9.29247,-0.0828548,-13.4242,24.5505,-1.37159,-0.436516,5.95226,-0.5133,5.15615,45.9133,2.65673,-2.07866,4.03267,3.86139,-14.8091,24.5505,1.37159,0.436516
385,0,17.7472,-1.03475,4.06566,16.4378,-0.217892,-1.5447,9.34323,-0.123146,-13.4456,24.5598,-1.37256,-0.502387,5.92272,-0.426142,4.82986,46.0364,2.56145,-1.81888,3.54893,3.95687,-14.4445,24.5598,1.37256,0.502387
386,0,17.9576,-1.06426,4.17382,16.1488,-0.191979,-1.63987,9.40732,-0.168407,-13.4703,24.5701,-1.36984,-0.564203,5.88828,-0.341034,4.51094,46.1525,2.47334,-1.57725,3.16744,4.04059,-14.0755,24.5701,1.36984,0.564203
387,0,18.1636,-1.09852,4.29937,15.8639,-0.165907,-1.74948,9.4862,-0.218328,-13.4997,24.578,-1.36361,-0.621394,5.84377,-0.262703,4.21714,46.255,2.39549,-1.3553,2.88217,4.11176,-13.7232,24.578,1.36361,0.621394
388,0,18.3652,-1.13569,4.43554,15.5854,-0.139761,-1.87278,9.58222,-0.273773,-13.5277,24.5845,-1.35436,-0.673743,5.78462,-0.196461,3.96852,46.3417,2.33064,-1.15412,2.68615,4.1692,-13.411,24.5845,1.35436,0.673743
389,0,18.5612,-1.17528,4.58053,15.3139,-0.115222,-2.00653,9.69688,-0.333708,-13.5552,24.5897,-1.34297,-0.720837,5.70833,-0.145587,3.77747,46.4106,2.28178,-0.978544,2.57554,4.21178,-13.1501,24.5897,1.34297,0.720837
390,0,18.7526,-1.21532,4.72711,15.0525,-0.0914088,-2.14932,9.8334,-0.399067,-13.5754,24.5952,-1.32901,-0.762856,5.60748,-0.11547,3.66432,46.461,2.24953,-0.828318,2.53836,4.23935,-12.9669,24.5952,1.32901,0.762856
391,0,18.9377,-1.25531,4.8734,14.799,-0.0700957,-2.29696,9.99282,-0.469123,-13.5902,24.5981,-1.31389,-0.799477,5.48078,-0.106603,3.63101,46.4895,2.23633,-0.708279,2.5734,4.25117,-12.8612,24.5981,1.31389,0.799477
392,0,19.1168,-1.29314,5.01177,14.5566,-0.0509207,-2.44877,10.1788,-0.544205,-13.5923,24.6001,-1.29741,-0.831329,5.32306,-0.121434,3.68673,46.4969,2.24214,-0.619067,2.67126,4.24669,-12.8453,24.6001,1.29741,0.831329
393,0,19.2893,-1.32777,5.13836,14.3235,-0.0345278,-2.59931,10.3931,-0.62402,-13.5815,24.5985,-1.28028,-0.858387,5.13101,-0.16069,3.83419,46.4814,2.26713,-0.564682,2.82689,4.22606,-12.9201,24.5985,1.28028,0.858387
394,0,19.4543,-1.35822,5.24964,14.1034,-0.0221526,-2.74808,10.6385,-0.707545,-13.5552,24.5958,-1.2631,-0.880622,4.89966,-0.224993,4.07563,46.4465,2.311,-0.546008,3.03239,4.189,-13.0891,24.5958,1.2631,0.880622
395,0,19.6114,-1.38234,5.33775,13.8962,-0.0132032,-2.89163,10.9171,-0.79494,-13.509,24.5911,-1.24574,-0.89839,4.62762,-0.311258,4.39928,46.3928,2.37201,-0.562737,3.2839,4.13686,-13.3402,24.5911,1.24574,0.89839
396,0,19.759,-1.40054,5.40423,13.7007,-0.00896384,-3.02765,11.2314,-0.885559,-13.4455,24.5819,-1.22902,-0.911885,4.31723,-0.416203,4.79264,46.3205,2.44866,-0.617361,3.57858,4.07073,-13.6591,24.5819,1.22902,0.911885
397,0,19.8961,-1.41091,5.44209,13.5203,-0.0101101,-3.15401,11.5836,-0.978634,-13.3601,24.5707,-1.21376,-0.921534,3.96467,-0.537807,5.24784,46.235,2.53846,-0.7094,3.90936,3.99168,-14.0365,24.5707,1.21376,0.921534
398,0,20.0211,-1.41385,5.45282,13.3543,-0.01652,-3.27012,11.9757,-1.07304,-13.2545,24.5557,-1.19925,-0.927674,3.57325,-0.671296,5.74674,46.1377,2.63829,-0.837629,4.27426,3.9012,-14.4519,24.5557,1.19925,0.927674
399,0,20.1313,-1.40867,5.43389,13.2048,-0.0299786,-3.37273,12.4091,-1.1674,-13.1294,24.5382,-1.18714,-0.930894,3.14794,-0.810041,6.26432,46.0333,2.74551,-1.00115,4.67177,3.80216,-14.8784,24.5382,1.18714,0.930894
400,0,20.2254,-1.39537,5.38533,13.0694,-0.049955,-3.46402,12.8861,-1.26152,-12.9829,24.5148,-1.1766,-0.931349,2.69507,-0.948185,6.77861,45.922,2.85616,-1.19605,5.10091,3.697,-15.2896,24.5148,1.1766,0.931349
401,0,20.299,-1.37563,5.31323,12.9523,-0.0777719,-3.54121,13.4072,-1.35339,-12.8235,24.4889,-1.16855,-0.92966,2.21834,-1.08174,7.27472,45.8102,2.96722,-1.42046,5.55599,3.58795,-15.6705,24.4889,1.16855,0.92966
402,0,20.3501,-1.34912,5.21638,12.8512,-0.114103,-3.6069,13.9739,-1.44212,-12.6477,24.4574,-1.16294,-0.925905,1.73253,-1.20132,7.71798,45.698,3.07612,-1.66961,6.04124,3.47801,-15.9823,24.4574,1.16294,0.925905
403,0,20.3734,-1.31813,5.10313,12.7687,-0.159751,-3.65984,14.586,-1.52605,-12.4646,24.4223,-1.16043,-0.92138,1.24427,-1.30295,8.09395,45.5892,3.17991,-1.93836,6.55184,3.36932,-16.2104,24.4223,1.16043,0.92138
404,0,20.3649,-1.28389,4.97794,12.7044,-0.215528,-3.70437,15.2448,-1.60495,-12.2747,24.3819,-1.16121,-0.915474,0.766749,-1.38009,8.37884,45.4841,3.27742,-2.21898,7.08786,3.26466,-16.3307,24.3819,1.16121,0.915474
405,0,20.319,-1.24815,4.84721,12.6597,-0.281335,-3.73996,15.9494,-1.67693,-12.085,24.3375,-1.16484,-0.909467,0.311141,-1.42802,8.55563,45.3843,3.36696,-2.50297,7.64688,3.16535,-16.3283,24.3375,1.16484,0.909467
406,0,20.2299,-1.21396,4.72211,12.6344,-0.358807,-3.77084,16.6991,-1.74182,-11.9022,24.2879,-1.1724,-0.903438,-0.111177,-1.44248,8.60892,45.2883,3.44886,-2.78287,8.22616,3.07365,-16.1897,24.2879,1.1724,0.903438
407,0,20.091,-1.18266,4.60756,12.6277,-0.447405,-3.79917,17.4934,-1.79918,-11.7285,24.232,-1.18306,-0.898041,-0.490278,-1.42141,8.53125,45.1936,3.52334,-3.04653,8.82205,2.98983,-15.9139,24.232,1.18306,0.898041
408,0,19.8955,-1.1583,4.51834,12.6427,-0.548288,-3.82954,18.3308,-1.84912,-11.5739,24.1721,-1.19753,-0.893491,-0.816734,-1.36312,8.31618,45.1007,3.59209,-3.28525,9.43051,2.91539,-15.4992,24.1721,1.19753,0.893491
409,0,19.636,-1.14265,4.46105,12.6797,-0.661653,-3.86288,19.2098,-1.89094,-11.4437,24.1082,-1.21567,-0.890123,-1.08462,-1.26795,7.96453,45.007,3.6573,-3.48779,10.0465,2.85026,-14.9547,24.1082,1.21567,0.890123
410,0,19.3048,-1.13917,4.44829,12.738,-0.787242,-3.90532,20.1282,-1.92721,-11.3431,24.0393,-1.23754,-0.888739,-1.28938,-1.13745,7.48134,44.9082,3.7211,-3.64445,10.6639,2.79473,-14.2942,24.0393,1.23754,0.888739
411,0,18.8945,-1.1505,4.48979,12.8186,-0.925367,-3.95907,21.0836,-1.95816,-11.2793,23.9659,-1.26325,-0.889575,-1.4296,-0.975482,6.8801,44.802,3.78594,-3.74906,11.2777,2.74909,-13.5387,23.9659,1.26325,0.889575
412,0,18.3969,-1.17915,4.5947,12.9216,-1.07575,-4.02819,22.0739,-1.98574,-11.2568,23.8883,-1.29257,-0.89275,-1.5058,-0.786732,6.17744,44.6848,3.85483,-3.79206,11.8806,2.71307,-12.7149,23.8883,1.29257,0.89275
413,0,17.8056,-1.22797,4.77339,13.0494,-1.23774,-4.11553,23.096,-2.01237,-11.2818,23.8082,-1.32537,-0.8991,-1.52032,-0.575853,5.39012,44.5552,3.92927,-3.77075,12.4665,2.68731,-11.8468,23.8082,1.32537,0.8991
414,0,17.115,-1.29807,5.02978,13.2002,-1.41135,-4.22503,24.1477,-2.04093,-11.354,23.7244,-1.36196,-0.908262,-1.47752,-0.349998,4.54454,44.4089,4.01254,-3.6827,13.029,2.67082,-10.9677,23.7244,1.36196,0.908262
415,0,16.319,-1.39232,5.37419,13.3754,-1.59564,-4.35934,25.2258,-2.07436,-11.4807,23.638,-1.40201,-0.92065,-1.3817,-0.114619,3.66113,44.2442,4.106,-3.52722,13.5629,2.66404,-10.1044,23.638,1.40201,0.92065
416,0,15.4153,-1.51014,5.80418,13.5745,-1.78955,-4.51886,26.3276,-2.11539,-11.6579,23.5491,-1.44534,-0.937151,-1.2399,0.123876,2.76417,44.0586,4.21027,-3.30827,14.0626,2.66634,-9.28377,23.5491,1.44534,0.937151
417,0,14.401,-1.65343,6.32617,13.7993,-1.99288,-4.70686,27.4505,-2.16759,-11.8902,23.4591,-1.49218,-0.957654,-1.05733,0.359126,1.87804,43.8521,4.32687,-3.02969,14.5242,2.67711,-8.53303,23.4591,1.49218,0.957654
418,0,13.2785,-1.8203,6.93268,14.0493,-2.20342,-4.92342,28.5922,-2.23441,-12.1708,23.3682,-1.54174,-0.98224,-0.840262,0.58714,1.01827,43.6228,4.45535,-2.69764,14.9438,2.69627,-7.86702,23.3682,1.54174,0.98224
419,0,12.0503,-2.01049,7.62198,14.3225,-2.42112,-5.1693,29.7495,-2.31817,-12.5001,23.2748,-1.59419,-1.01087,-0.593891,0.804164,0.199501,43.368,4.59634,-2.31853,15.3191,2.72279,-7.29981,23.2748,1.59419,1.01087
420,0,10.722,-2.22093,8.38198,14.6241,-2.64447,-5.4443,30.9202,-2.4224,-12.8699,23.1845,-1.64968,-1.04418,-0.32343,1.00758,-0.568017,43.0927,4.74853,-1.90168,15.6485,2.75599,-6.83691,23.1845,1.64968,1.04418
421,0,9.30449,-2.44837,9.19992,14.9513,-2.87189,-5.74574,32.1027,-2.54809,-13.2738,23.095,-1.70728,-1.08208,-0.0338707,1.19568,-1.27756,42.7947,4.91073,-1.45731,15.9319,2.79418,-6.47883,23.095,1.70728,1.08208
422,0,7.80985,-2.68921,10.0618,15.3049,-3.10276,-6.0736,33.2944,-2.69747,-13.7061,23.0073,-1.76743,-1.12436,0.270696,1.36766,-1.92595,42.4756,5.08131,-0.995885,16.1704,2.83659,-6.22033,23.0073,1.76743,1.12436
423,0,6.2539,-2.93765,10.9458,15.684,-3.33553,-6.42412,34.4934,-2.87126,-14.1544,22.9213,-1.82953,-1.17153,0.587031,1.52387,-2.51447,42.1364,5.25773,-0.528631,16.3657,2.88162,-6.05039,22.9213,1.82953,1.17153
424,0,4.65775,-3.18835,11.8325,16.091,-3.56938,-6.79652,35.6985,-3.07017,-14.6098,22.8398,-1.89364,-1.22296,0.912565,1.66487,-3.04518,41.7816,5.43745,-0.067409,16.5209,2.92857,-5.95502,22.8398,1.89364,1.22296
425,0,3.0427,-3.43572,12.7015,16.5227,-3.80298,-7.18624,36.908,-3.29327,-15.0636,22.7598,-1.9592,-1.27947,1.24146,1.79129,-3.52058,41.4106,5.617,0.375385,16.6388,2.97539,-5.92004,22.7598,1.9592,1.27947
426,0,1.43443,-3.67218,13.5264,16.9817,-4.03471,-7.58993,38.12,-3.53991,-15.5019,22.6849,-2.02576,-1.34036,1.57368,1.90404,-3.94413,41.0298,5.79254,0.788937,16.7242,3.02207,-5.92776,22.6849,2.02576,1.34036
427,0,-0.140537,-3.89255,14.29,17.4691,-4.2648,-8.00504,39.3334,-3.80831,-15.9172,22.6162,-2.09379,-1.40538,1.90626,2.00423,-4.32014,40.6435,5.9617,1.16079,16.7815,3.0671,-5.96063,22.6162,2.09379,1.40538
428,0,-1.65438,-4.09019,14.9702,17.9821,-4.49135,-8.42778,40.5465,-4.09734,-16.2966,22.5516,-2.16265,-1.4751,2.2362,2.09227,-4.65024,40.2528,6.12074,1.48041,16.8152,3.10942,-6.00475,22.5516,2.16265,1.4751
429,0,-3.07953,-4.26013,15.5516,18.5217,-4.71397,-8.85426,41.7576,-4.40335,-16.6335,22.4929,-2.2321,-1.54874,2.56175,2.16927,-4.93869,39.8627,6.26668,1.73978,16.8298,3.14961,-6.04598,22.4929,2.2321,1.54874
430,0,-4.39133,-4.39862,16.0228,19.09,-4.93151,-9.28142,42.9651,-4.72449,-16.9213,22.4423,-2.30196,-1.62629,2.87991,2.23459,-5.18315,39.4779,6.39745,1.93174,16.8277,3.18655,-6.07702,22.4423,2.30196,1.62629
431,0,-5.56559,-4.50153,16.3715,19.6808,-5.14275,-9.70623,44.167,-5.05761,-17.151,22.3947,-2.37147,-1.70765,3.18953,2.28842,-5.3845,39.096,6.51148,2.05146,16.8131,3.21939,-6.09018,22.3947,2.37147,1.70765
432,0,-6.58246,-4.56641,16.5906,20.3004,-5.34734,-10.1254,45.3613,-5.40045,-17.3172,22.3569,-2.44138,-1.79256,3.4881,2.32984,-5.5393,38.7252,6.60796,2.09609,16.7871,3.24835,-6.08429,22.3569,2.44138,1.79256
433,0,-7.42964,-4.59386,16.6832,20.9426,-5.54333,-10.5354,46.5448,-5.74903,-17.4235,22.3237,-2.51013,-1.88099,3.77348,2.35793,-5.64426,38.3612,6.68601,2.068,16.7502,3.27358,-6.06421,22.3237,2.51013,1.88099
434,0,-8.09529,-4.58202,16.6433,21.6106,-5.73013,-10.9345,47.7154,-6.10145,-17.462,22.2992,-2.57834,-1.97256,4.04389,2.37163,-5.69541,38.0082,6.74676,1.96845,16.7025,3.29467,-6.03375,22.2992,2.57834,1.97256
435,0,-8.57632,-4.5326,16.4765,22.3005,-5.90709,-11.3186,48.8695,-6.45346,-17.4374,22.2804,-2.64573,-2.0669,4.29739,2.3692,-5.68636,37.663,6.79123,1.80129,16.6428,3.31163,-6.00279,22.2804,2.64573,2.0669
436,0,-8.87264,-4.44745,16.1884,23.0133,-6.07213,-11.6869,50.0035,-6.80358,-17.3512,22.2698,-2.71142,-2.16399,4.53224,2.34987,-5.61415,37.327,6.8204,1.57572,16.5696,3.3249,-5.98229,22.2698,2.71142,2.16399
437,0,-8.99033,-4.32803,15.7829,23.7434,-6.22416,-12.0354,51.1138,-7.14767,-17.2054,22.2633,-2.77534,-2.26348,4.7471,2.31228,-5.47368,36.9943,6.83642,1.29932,16.48,3.33464,-5.98427,22.2633,2.77534,2.26348
438,0,-8.94056,-4.17857,15.273,24.4938,-6.36236,-12.3614,52.1952,-7.48268,-17.0082,22.2656,-2.83738,-2.36499,4.94103,2.25577,-5.26239,36.6683,6.84083,0.981289,16.3721,3.34206,-6.01963,22.2656,2.83738,2.36499
439,0,-8.7362,-4.00231,14.6683,25.2604,-6.4848,-12.663,53.2445,-7.8065,-16.7647,22.2737,-2.89699,-2.4688,5.11389,2.17998,-4.97877,36.3441,6.83536,0.631762,16.2434,3.34781,-6.09972,22.2737,2.89699,2.4688
440,0,-8.39238,-3.80271,13.9793,26.0406,-6.59066,-12.938,54.2568,-8.11608,-16.4798,22.2871,-2.95416,-2.57416,5.26553,2.08509,-4.62333,36.0196,6.82263,0.261575,16.0921,3.35251,-6.23327,22.2871,2.95416,2.57416
441,0,-7.92903,-3.58524,13.2238,26.8335,-6.67853,-13.1845,55.2266,-8.40895,-16.163,22.3068,-3.00827,-2.6813,5.39666,1.97219,-4.19995,35.6944,6.80359,-0.117033,15.9165,3.35805,-6.42751,22.3068,3.00827,2.6813
442,0,-7.36465,-3.35429,12.4161,27.6351,-6.7477,-13.401,56.1498,-8.68297,-15.8214,22.3309,-3.05909,-2.78982,5.50872,1.84317,-3.71553,35.3652,6.78019,-0.494972,15.7157,3.3651,-6.68352,22.3309,3.05909,2.78982
443,0,-6.71887,-3.11474,11.5728,28.4455,-6.79726,-13.5864,57.0213,-8.93601,-15.4627,22.3613,-3.10643,-2.8995,5.60383,1.69964,-3.17598,35.0335,6.75351,-0.862301,15.4897,3.37494,-7.00318,22.3613,3.10643,2.8995
444,0,-6.00954,-2.8718,10.712,29.2597,-6.82643,-13.7397,57.837,-9.16688,-15.0941,22.3951,-3.14987,-3.01038,5.68316,1.54532,-2.5952,34.6951,6.72485,-1.20879,15.2385,3.38856,-7.38149,22.3951,3.14987,3.01038
445,0,-5.25708,-2.6301,9.85067,30.076,-6.83505,-13.8599,58.591,-9.37317,-14.7236,22.4331,-3.18938,-3.12217,5.75039,1.3839,-1.98715,34.3513,6.69478,-1.52676,14.9639,3.40758,-7.81057,22.4331,3.18938,3.12217
446,0,-4.47588,-2.39524,9.0092,30.8935,-6.82269,-13.9486,59.2798,-9.55585,-14.3598,22.4763,-3.22452,-3.23479,5.80798,1.21886,-1.36499,34.0027,6.6639,-1.81013,14.6673,3.43175,-8.28136,22.4763,3.22452,3.23479
447,0,-3.68123,-2.17106,8.20215,31.7057,-6.78901,-14.0048,59.8988,-9.71312,-14.008,22.5206,-3.25466,-3.34813,5.85941,1.05506,-0.747162,33.6457,6.63235,-2.05196,14.3516,3.46219,-8.78078,22.5206,3.25466,3.34813
448,0,-2.88541,-1.96117,7.44345,32.5123,-6.73474,-14.0309,60.4442,-9.8458,-13.6734,22.5677,-3.28003,-3.46233,5.90731,0.896472,-0.148797,33.2831,6.60005,-2.25066,14.0197,3.49911,-9.29533,22.5677,3.28003,3.46233
449,0,-2.09922,-1.76962,6.74864,33.3102,-6.66072,-14.0273,60.9126,-9.95354,-13.3632,22.6167,-3.30063,-3.57693,5.95524,0.747937,0.411654,32.9147,6.56733,-2.40238,13.6751,3.54269,-9.80859,22.6167,3.30063,3.57693
450,0,-1.33054,-1.59849,6.12616,34.0982,-6.56624,-13.9959,61.3006,-10.0375,-13.0802,22.6686,-3.31555,-3.69203,6.00506,0.612747,0.921684,32.5426,6.53265,-2.50681,13.3204,3.5929,-10.3075,22.6686,3.31555,3.69203
451,0,-0.586015,-1.45082,5.58778,34.8726,-6.4533,-13.9393,61.6055,-10.0987,-12.8301,22.7217,-3.32507,-3.80736,6.06064,0.494886,1.36621,32.1671,6.49625,-2.56645,12.9614,3.649,-10.7748,22.7217,3.32507,3.80736
452,0,0.129212,-1.32718,5.1362,35.6319,-6.32211,-13.8592,61.8249,-10.1378,-12.6148,22.7766,-3.32898,-3.92298,6.12317,0.396839,1.73589,31.7897,6.45675,-2.58358,12.6004,3.71097,-11.1986,22.7766,3.32898,3.92298
453,0,0.813639,-1.22897,4.77704,36.3727,-6.17379,-13.7576,61.9575,-10.1564,-12.4375,22.8314,-3.32711,-4.03882,6.19458,0.321287,2.02065,31.4105,6.41361,-2.56158,12.2413,3.77818,-11.5663,22.8314,3.32711,4.03882
454,0,1.46504,-1.15592,4.50965,37.0936,-6.00986,-13.6378,62.002,-10.1563,-12.2983,22.8867,-3.3195,-4.15489,6.27674,0.269047,2.21748,31.0318,6.36549,-2.50532,11.8882,3.85061,-11.8703,22.8867,3.3195,4.15489
455,0,2.08201,-1.10816,4.33469,37.7933,-5.83122,-13.5024,61.9571,-10.139,-12.2003,22.9424,-3.30602,-4.27094,6.36986,0.240374,2.3255,30.6549,6.3118,-2.42206,11.5434,3.92655,-12.1028,22.9424,3.30602,4.27094
456,0,2.66618,-1.08389,4.24577,38.4693,-5.63913,-13.3536,61.8231,-10.1057,-12.1411,22.9976,-3.28653,-4.38685,6.47462,0.235484,2.34391,30.2805,6.25148,-2.31706,11.2099,4.00595,-12.2588,22.9976,3.28653,4.38685
457,0,3.21814,-1.08134,4.23641,39.1208,-5.43511,-13.1933,61.6003,-10.0572,-12.1193,23.0531,-3.2612,-4.5023,6.59095,0.252124,2.28123,29.9106,6.18392,-2.19636,10.8897,4.08833,-12.3412,23.0531,3.2612,4.5023
458,0,3.73829,-1.09928,4.30216,39.7458,-5.22088,-13.0245,61.2895,-9.99517,-12.1367,23.1073,-3.23013,-4.61727,6.7183,0.288645,2.14364,29.5447,6.10862,-2.06809,10.5843,4.17263,-12.3491,23.1073,3.23013,4.61727
459,0,4.23002,-1.13449,4.43115,40.3449,-4.99706,-12.8492,60.8918,-9.92125,-12.1874,23.1624,-3.19335,-4.732,6.85549,0.342177,1.94192,29.1853,6.02543,-1.93676,10.2934,4.25775,-12.2904,23.1624,3.19335,4.732
460,0,4.69315,-1.18485,4.61556,40.916,-4.76568,-12.6699,60.4094,-9.83628,-12.2715,23.2163,-3.15084,-4.84572,7.00125,0.408547,1.69175,28.8313,5.93422,-1.80936,10.018,4.34306,-12.1741,23.2163,3.15084,4.84572
461,0,5.12922,-1.24708,4.84329,41.4565,-4.52848,-12.4863,59.8439,-9.73959,-12.3851,23.2678,-3.10327,-4.95849,7.15423,0.484547,1.4052,28.4812,5.83577,-1.69075,9.75697,4.4278,-12.0088,23.2678,3.10327,4.95849
462,0,5.53887,-1.31828,5.10369,41.97,-4.28593,-12.3027,59.1977,-9.63365,-12.5247,23.3205,-3.05026,-5.06983,7.31221,0.566013,1.09796,28.1384,5.73029,-1.58477,9.50895,4.51055,-11.8079,23.3205,3.05026,5.06983
463,0,5.92205,-1.39593,5.38738,42.4526,-4.04,-12.1183,58.4739,-9.5181,-12.6886,23.3708,-2.99249,-5.17979,7.47301,0.648045,0.788527,27.7986,5.61887,-1.49498,9.27171,4.59099,-11.5875,23.3708,2.99249,5.17979
464,0,6.27873,-1.47636,5.68095,42.9059,-3.79189,-11.9343,57.675,-9.39235,-12.8711,23.421,-2.93016,-5.28769,7.63502,0.727243,0.489731,27.4634,5.50265,-1.4237,9.04343,4.66787,-11.3596,23.421,2.93016,5.28769
465,0,6.60866,-1.55704,5.97514,43.3295,-3.54259,-11.7511,56.8049,-9.25665,-13.0693,23.4702,-2.8634,-5.39348,7.79552,0.799004,0.21897,27.1309,5.3823,-1.37321,8.82138,4.74056,-11.1394,23.4702,2.8634,5.39348
466,0,6.90953,-1.63662,6.26496,43.7236,-3.2934,-11.5692,55.8661,-9.11126,-13.2834,23.5187,-2.79288,-5.49684,7.95331,0.860611,-0.0134861,26.8004,5.25947,-1.34381,8.60349,4.80858,-10.9396,23.5187,2.79288,5.49684
467,0,7.18094,-1.71138,6.53695,44.0879,-3.04508,-11.3877,54.8628,-8.95517,-13.5061,23.5658,-2.71889,-5.59738,8.10636,0.909075,-0.196351,26.4702,5.13541,-1.33486,8.38706,4.8713,-10.7718,23.5658,2.71889,5.59738
468,0,7.42062,-1.78128,6.79098,44.4235,-2.79873,-11.2071,53.7982,-8.78834,-13.7386,23.6124,-2.64161,-5.69473,8.25294,0.942026,-0.320682,26.1398,5.01117,-1.34457,8.16911,4.92883,-10.6478,23.6124,2.64161,5.69473
469,0,7.62661,-1.84425,7.01958,44.7298,-2.55554,-11.0253,52.676,-8.60945,-13.978,23.6574,-2.56172,-5.78832,8.39259,0.958254,-0.381912,25.8074,4.88836,-1.3732,7.94892,4.98058,-10.5717,23.6574,2.56172,5.78832
470,0,7.79816,-1.89974,7.22085,45.0095,-2.31557,-10.8436,51.4996,-8.41965,-14.2211,23.7028,-2.47938,-5.878,8.52406,0.956886,-0.37675,25.4738,4.76725,-1.41546,7.72354,5.02736,-10.5524,23.7028,2.47938,5.878
471,0,7.93278,-1.94719,7.3928,45.2615,-2.08014,-10.6591,50.2731,-8.21714,-14.4673,23.7464,-2.39519,-5.9633,8.64785,0.938347,-0.306799,25.1365,4.64981,-1.46988,7.49288,5.06843,-10.5894,23.7464,2.39519,5.9633
472,0,8.03039,-1.98654,7.53528,45.4878,-1.84973,-10.4697,48.9998,-8.00136,-14.7146,23.7899,-2.31004,-6.044,8.76414,0.903666,-0.175942,24.7965,4.53686,-1.53273,7.25598,5.10456,-10.6814,23.7899,2.31004,6.044
473,0,8.08996,-2.01804,7.6493,45.6877,-1.62467,-10.2749,47.6839,-7.77224,-14.9622,23.8309,-2.22349,-6.11974,8.87314,0.854524,0.00948159,24.4506,4.42827,-1.59852,7.01175,5.1369,-10.8274,23.8309,2.22349,6.11974
474,0,8.11204,-2.04172,7.73494,45.8664,-1.40609,-10.0718,46.3285,-7.52903,-15.2063,23.8739,-2.13723,-6.19008,8.97606,0.7925,0.243514,24.1037,4.32583,-1.66523,6.76134,5.16484,-11.0217,23.8739,2.13723,6.19008
475,0,8.09657,-2.05902,7.79748,46.0218,-1.1938,-9.85892,44.9375,-7.27224,-15.4493,23.9149,-2.05071,-6.25489,9.07445,0.720553,0.514971,23.7519,4.22921,-1.72882,6.50568,5.18906,-11.2561,23.9149,2.05071,6.25489
476,0,8.04494,-2.0711,7.84117,46.1557,-0.988723,-9.63457,43.5143,-7.00175,-15.6896,23.9547,-1.96461,-6.31369,9.16977,0.6416,0.812839,23.396,4.1389,-1.78481,6.24547,5.21091,-11.5232,23.9547,1.96461,6.31369
477,0,7.9593,-2.07753,7.86441,46.2707,-0.791315,-9.39468,42.0628,-6.71696,-15.9231,23.9944,-1.87977,-6.36624,9.26387,0.55861,1.12589,23.0375,4.0556,-1.83043,5.98252,5.22998,-11.812,23.9944,1.87977,6.36624
478,0,7.84153,-2.08015,7.87386,46.3676,-0.601951,-9.13762,40.5866,-6.41803,-16.1509,24.0329,-1.79608,-6.41262,9.35802,0.474604,1.44269,22.6759,3.97872,-1.86221,5.71808,5.24756,-12.1149,24.0329,1.79608,6.41262
479,0,7.69465,-2.07982,7.87269,46.4494,-0.420853,-8.86122,39.0893,-6.10676,-16.3709,24.0714,-1.71438,-6.45253,9.45451,0.392517,1.75218,22.3133,3.90891,-1.87836,5.4547,5.26311,-12.4209,24.0714,1.71438,6.45253
480,0,7.52252,-2.07695,7.86231,46.5155,-0.248401,-8.56359,37.5747,-5.78361,-16.5806,24.1078,-1.63445,-6.48615,9.55492,0.314933,2.04459,21.9485,3.84548,-1.87818,5.1949,5.27755,-12.7207,24.1078,1.63445,6.48615
481,0,7.32807,-2.07275,7.84714,46.57,-0.0857454,-8.24258,36.0463,-5.44989,-16.7793,24.1442,-1.55728,-6.51262,9.66114,0.244339,2.31056,21.5843,3.78898,-1.85989,4.94058,5.29114,-13.005,24.1442,1.55728,6.51262
482,0,7.11552,-2.06763,7.82862,46.614,0.0671823,-7.89561,34.5085,-5.10667,-16.9653,24.1796,-1.48291,-6.53294,9.77422,0.182654,2.54288,21.2205,3.73874,-1.82292,4.69349,5.3038,-13.268,24.1796,1.48291,6.53294
483,0,6.88872,-2.06227,7.80924,46.6489,0.20997,-7.52273,32.9644,-4.75643,-17.1376,24.2138,-1.41133,-6.54657,9.89529,0.130483,2.7393,20.8581,3.69442,-1.77001,4.45646,5.31599,-13.5042,24.2138,1.41133,6.54657
484,0,6.65225,-2.05687,7.78971,46.6756,0.341771,-7.12351,31.4189,-4.40178,-17.2918,24.2455,-1.34302,-6.55377,10.026,0.0894685,2.89367,20.4968,3.65622,-1.70058,4.23166,5.32748,-13.7079,24.2455,1.34302,6.55377
485,0,6.40954,-2.05253,7.77403,46.6998,0.462078,-6.69536,29.8759,-4.04393,-17.4312,24.2783,-1.27853,-6.55471,10.167,0.0594641,3.00657,20.1408,3.62357,-1.61743,4.02039,5.33819,-13.8764,24.2783,1.27853,6.55471
486,0,6.16517,-2.04868,7.76012,46.7189,0.570862,-6.24171,28.3398,-3.68695,-17.549,24.3081,-1.21733,-6.54995,10.319,0.0400501,3.07961,19.7871,3.59593,-1.52361,3.82488,5.34799,-14.0098,24.3081,1.21733,6.54995
487,0,5.92344,-2.04624,7.75127,46.738,0.667104,-5.76313,26.8154,-3.33335,-17.6467,24.3376,-1.16009,-6.53907,10.4822,0.0307525,3.11459,19.4392,3.57306,-1.42112,3.64641,5.35738,-14.1074,24.3376,1.16009,6.53907
488,0,5.68753,-2.04434,7.74442,46.7566,0.750595,-5.26178,25.3077,-2.9853,-17.7205,24.365,-1.10611,-6.52284,10.6567,0.0304713,3.11565,19.0955,3.55444,-1.31346,3.48583,5.36559,-14.1706,24.365,1.10611,6.52284
489,0,5.46051,-2.04413,7.74364,46.7776,0.820744,-4.74053,23.8212,-2.64668,-17.7717,24.3913,-1.05649,-6.5016,10.8432,0.0375219,3.08912,18.7579,3.54011,-1.20442,3.34456,5.3729,-14.2027,24.3913,1.05649,6.5016
490,0,5.24748,-2.04489,7.74641,46.8023,0.877334,-4.20423,22.3617,-2.31961,-17.7958,24.4164,-1.01044,-6.47542,11.0404,0.050355,3.04085,18.4265,3.52934,-1.09602,3.2225,5.37876,-14.2073,24.4164,1.01044,6.47542
491,0,5.05041,-2.04666,7.75279,46.8331,0.919988,-3.6563,20.9344,-2.00627,-17.7933,24.441,-0.968775,-6.44534,11.2492,0.0669832,2.97828,18.1027,3.52228,-0.992976,3.12078,5.3833,-14.1893,24.441,0.968775,6.44534
492,0,4.87175,-2.0495,7.76307,46.8681,0.948743,-3.10319,19.5448,-1.70928,-17.7639,24.4626,-0.930437,-6.41085,11.4689,0.0857888,2.90752,17.7836,3.51839,-0.897151,3.03928,5.38602,-14.1522,24.4626,0.930437,6.41085
493,0,4.71371,-2.0536,7.77789,46.9116,0.963881,-2.54993,18.1984,-1.42963,-17.7072,24.4843,-0.895846,-6.37332,11.6986,0.1049,2.83559,17.4726,3.51713,-0.812774,2.97793,5.38674,-14.1004,24.4843,0.895846,6.37332
494,0,4.57822,-2.05901,7.79745,46.9599,0.965336,-2.00341,16.9006,-1.16831,-17.625,24.5019,-0.864647,-6.33299,11.9383,0.122857,2.76801,17.1652,3.51877,-0.74018,2.93635,5.38509,-14.0386,24.5019,0.864647,6.33299
495,0,4.46621,-2.06516,7.81968,47.0167,0.953759,-1.46867,15.6566,-0.926076,-17.5163,24.519,-0.837191,-6.29031,12.1873,0.138439,2.70935,16.8649,3.52336,-0.682107,2.91407,5.38065,-13.9711,24.519,0.837191,6.29031
496,0,4.37806,-2.07239,7.84583,47.083,0.929663,-0.953212,14.472,-0.702566,-17.3848,24.5363,-0.813136,-6.24555,12.4447,0.150285,2.66475,16.5723,3.53042,-0.639403,2.91105,5.37313,-13.9011,24.5363,0.813136,6.24555
497,0,4.31455,-2.08146,7.8786,47.1539,0.893952,-0.462208,13.3509,-0.497676,-17.2353,24.5494,-0.791955,-6.19921,12.7104,0.157793,2.63649,16.2825,3.53994,-0.613136,2.92642,5.36249,-13.8314,24.5494,0.791955,6.19921
498,0,4.27457,-2.09161,7.9153,47.2336,0.848203,-0.00181232,12.2986,-0.310567,-17.067,24.563,-0.774038,-6.15219,12.9831,0.160068,2.62792,16,3.5522,-0.603309,2.95958,5.34756,-13.7659,24.563,0.774038,6.15219
499,0,4.25717,-2.10448,7.96178,47.3192,0.793348,0.423543,11.3182,-0.140036,-16.8896,24.5753,-0.758855,-6.10439,13.263,0.157545,2.63742,15.7225,3.56707,-0.609183,3.01036,5.32839,-13.7039,24.5753,0.758855,6.10439
500,0,4.26013,-2.12013,8.01829,47.4086,0.731755,0.809515,10.4133,0.0144358,-16.7059,24.5854,-0.745947,-6.05676,13.5494,0.150668,2.66331,15.4486,3.58435,-0.629653,3.07791,5.3047,-13.6457,24.5854,0.745947,6.05676
501,0,4.28222,-2.13839,8.08422,47.5013,0.664677,1.15259,9.58704,0.154244,-16.5215,24.5941,-0.735402,-6.00926,13.841,0.139411,2.70569,15.179,3.60446,-0.663899,3.16164,5.27574,-13.5919,24.5941,0.735402,6.00926
502,0,4.32037,-2.16122,8.16665,47.5963,0.594093,1.4515,8.84118,0.280489,-16.3447,24.6019,-0.727359,-5.96274,14.138,0.124657,2.76123,14.914,3.62788,-0.710906,3.26195,5.24091,-13.5424,24.6019,0.727359,5.96274
503,0,4.37153,-2.18832,8.26441,47.6914,0.522599,1.7038,8.17807,0.393295,-16.18,24.6081,-0.720969,-5.91717,14.4393,0.107501,2.82581,14.6525,3.65414,-0.767536,3.37821,5.20018,-13.4951,24.6081,0.720969,5.91717
504,0,4.43299,-2.22088,8.38179,47.7853,0.452096,1.90791,7.59867,0.493201,-16.0343,24.613,-0.716049,-5.87277,14.7441,0.0884839,2.89738,14.3948,3.68352,-0.832922,3.51036,5.15272,-13.4495,24.613,0.716049,5.87277
505,0,4.50041,-2.25904,8.51929,47.8759,0.385141,2.06572,7.10371,0.580153,-15.9117,24.6161,-0.712632,-5.83024,15.0519,0.0690041,2.97068,14.1403,3.71601,-0.905659,3.65893,5.0987,-13.403,24.6161,0.712632,5.83024
506,0,4.5704,-2.30414,8.68167,47.9633,0.323798,2.17697,6.69292,0.65354,-15.82,24.6187,-0.710621,-5.78974,15.3612,0.049701,3.04331,13.8905,3.75206,-0.98424,3.82377,5.03745,-13.355,24.6187,0.710621,5.78974
507,0,4.63955,-2.35427,8.86196,48.0451,0.270159,2.24404,6.36771,0.713411,-15.7555,24.62,-0.70939,-5.75116,15.6711,0.0318743,3.11037,13.6443,3.79097,-1.06616,4.00504,4.96917,-13.3034,24.62,0.70939,5.75116
508,0,4.70174,-2.41198,9.06931,48.1196,0.226066,2.26821,6.12432,0.758265,-15.7305,24.6189,-0.709268,-5.71498,15.9808,0.0161608,3.16948,13.4015,3.83346,-1.15177,4.20409,4.89363,-13.2463,24.6189,0.709268,5.71498
509,0,4.75467,-2.47591,9.29871,48.1874,0.193752,2.25224,5.96386,0.787013,-15.7404,24.617,-0.709311,-5.68107,16.2886,0.00374724,3.21617,13.1633,3.87822,-1.23826,4.42097,4.81133,-13.1821,24.617,0.709311,5.68107
510,0,4.79133,-2.54717,9.55405,48.2473,0.174619,2.19841,5.88254,0.797798,-15.7915,24.6133,-0.71007,-5.64969,16.5935,-0.00532945,3.2503,12.9295,3.92595,-1.3267,4.65673,4.72192,-13.1108,24.6133,0.71007,5.64969
511,0,4.81085,-2.62281,9.82463,48.2992,0.169876,2.10841,5.88064,0.790633,-15.8732,24.608,-0.71038,-5.62065,16.8942,-0.0104298,3.26948,12.7007,3.97538,-1.41631,4.91263,4.62535,-13.03,24.608,0.71038,5.62065
512,0,4.8068,-2.70336,10.1123,48.3433,0.180118,1.9873,5.95453,0.763666,-15.989,24.601,-0.71121,-5.59428,17.1888,-0.011718,3.27433,12.4772,4.02661,-1.50721,5.18901,4.52297,-12.9407,24.601,0.71121,5.59428
513,0,4.77404,-2.78859,10.4161,48.3789,0.206147,1.83602,6.09952,0.716324,-16.1382,24.5916,-0.711178,-5.5701,17.4763,-0.00877184,3.26325,12.259,4.07835,-1.59975,5.48775,4.41434,-12.8407,24.5916,0.711178,5.5701
514,0,4.71178,-2.87459,10.722,48.4078,0.247656,1.6586,6.31484,0.64814,-16.3069,24.5808,-0.71096,-5.54819,17.755,-0.00223863,3.23868,12.048,4.13004,-1.69647,5.81034,4.30061,-12.7305,24.5808,0.71096,5.54819
515,0,4.61665,-2.9606,11.0273,48.4283,0.304539,1.4579,6.59631,0.558834,-16.4905,24.5664,-0.7102,-5.52888,18.0236,0.0085512,3.1981,11.8418,4.18103,-1.79575,6.15712,4.18263,-12.6081,24.5664,0.7102,5.52888
516,0,4.48497,-3.04611,11.3301,48.4447,0.37585,1.23546,6.93849,0.448895,-16.6863,24.5513,-0.708573,-5.51134,18.2799,0.0221405,3.14698,11.6448,4.22992,-1.90018,6.52973,4.06031,-12.4765,24.5513,0.708573,5.51134
517,0,4.3177,-3.12672,11.6151,48.4541,0.460341,0.994754,7.33948,0.319531,-16.8773,24.5319,-0.705822,-5.4959,18.5232,0.037981,3.0874,11.4538,4.2757,-2.01093,6.93007,3.93497,-12.3347,24.5319,0.705822,5.4959
518,0,4.11676,-3.20014,11.874,48.4598,0.556627,0.738269,7.79566,0.171009,-17.0523,24.5105,-0.702295,-5.48221,18.7511,0.0555882,3.02116,11.2719,4.31777,-2.13013,7.35905,3.80691,-12.183,24.5105,0.702295,5.48221
519,0,3.87835,-3.26872,12.1155,48.4613,0.662696,0.467488,8.29747,0.00590142,-17.2188,24.4854,-0.697192,-5.47003,18.9626,0.0744132,2.95032,11.0984,4.35419,-2.25862,7.81884,3.67732,-12.0206,24.4854,0.697192,5.47003
520,0,3.61132,-3.32525,12.3141,48.4607,0.77664,0.186418,8.84482,-0.173511,-17.3493,24.4584,-0.69048,-5.45899,19.1544,0.0930331,2.88026,10.9352,4.38383,-2.39597,8.30909,3.54684,-11.8521,24.4584,0.69048,5.45899
521,0,3.31942,-3.3693,12.4688,48.457,0.896162,-0.103591,9.43266,-0.365415,-17.437,24.427,-0.682476,-5.44911,19.3253,0.110855,2.81318,10.7809,4.40628,-2.54518,8.83193,3.41572,-11.6757,24.427,0.682476,5.44911
522,0,3.00902,-3.39958,12.5749,48.4523,1.01884,-0.398799,10.0544,-0.566549,-17.477,24.3935,-0.672868,-5.43979,19.472,0.127052,2.75221,10.6388,4.42004,-2.70634,9.38838,3.2851,-11.493,24.3935,0.672868,5.43979
523,0,2.68841,-3.41381,12.6248,48.4447,1.14208,-0.69814,10.7059,-0.774337,-17.4572,24.3556,-0.661694,-5.43046,19.5919,0.140328,2.70224,10.5069,4.42441,-2.87954,9.97886,3.15518,-11.307,24.3556,0.661694,5.43046
524,0,2.3654,-3.41065,12.6137,48.435,1.26488,-0.99671,11.3816,-0.985052,-17.3723,24.3146,-0.648285,-5.42171,19.6813,0.149801,2.66658,10.3878,4.41788,-3.06662,10.6048,3.02598,-11.1177,24.3146,0.648285,5.42171
525,0,2.05181,-3.38846,12.5359,48.4236,1.38491,-1.29271,12.0773,-1.19673,-17.2141,24.2712,-0.633398,-5.41273,19.7365,0.154931,2.64726,10.2826,4.40023,-3.26575,11.2664,2.89881,-10.9281,24.2712,0.633398,5.41273
526,0,1.7556,-3.34721,12.3912,48.4064,1.50027,-1.58159,12.7865,-1.40549,-16.9819,24.2228,-0.616486,-5.4029,19.7529,0.154558,2.64867,10.1895,4.37109,-3.47734,11.9641,2.77271,-10.7403,24.2228,0.616486,5.4029
527,0,1.48743,-3.28598,12.1762,48.3836,1.6105,-1.86073,13.5047,-1.60914,-16.6719,24.1706,-0.597234,-5.39236,19.725,0.147766,2.67424,10.1105,4.32929,-3.70016,12.6975,2.64851,-10.5571,24.1706,0.597234,5.39236
528,0,1.2546,-3.20503,11.8913,48.3545,1.71478,-2.12456,14.226,-1.80492,-16.2874,24.116,-0.57621,-5.38092,19.6473,0.13409,2.72572,10.0478,4.27518,-3.93414,13.4673,2.52569,-10.3802,24.116,0.57621,5.38092
529,0,1.06526,-3.10518,11.539,48.3165,1.81204,-2.37176,14.945,-1.99061,-15.831,24.0581,-0.553064,-5.36739,19.5132,0.112295,2.80776,10.0013,4.20841,-4.17802,14.2729,2.40419,-10.2121,24.0581,0.553064,5.36739
530,0,0.924527,-2.98703,11.1209,48.2671,1.90301,-2.59679,15.6562,-2.16369,-15.3097,23.9972,-0.527806,-5.35228,19.3166,0.0824782,2.91998,9.97219,4.12916,-4.42994,15.1141,2.28399,-10.0553,23.9972,0.527806,5.35228
531,0,0.836085,-2.8525,10.6434,48.2052,1.98772,-2.79797,16.3545,-2.32331,-14.732,23.9341,-0.500435,-5.33479,19.0494,0.0431423,3.06798,9.96181,4.03748,-4.68887,15.9899,2.16465,-9.91396,23.9341,0.500435,5.33479
532,0,0.801654,-2.70412,10.115,48.1282,2.06692,-2.97115,17.034,-2.46738,-14.1113,23.8692,-0.471091,-5.31515,18.704,-0.00563912,3.25147,9.97142,3.93381,-4.95438,16.8997,2.04573,-9.78744,23.8692,0.471091,5.31515
533,0,0.820137,-2.54485,9.54573,48.0341,2.14094,-3.11539,17.6895,-2.595,-13.463,23.8023,-0.439602,-5.29232,18.274,-0.0641014,3.47127,10.0013,3.81843,-5.22308,17.842,1.92733,-9.67849,23.8023,0.439602,5.29232
534,0,0.890506,-2.37833,8.94843,47.9209,2.21136,-3.22942,18.316,-2.70568,-12.8025,23.7345,-0.405811,-5.26694,17.7506,-0.13336,3.73154,10.0538,3.69177,-5.49654,18.8163,1.80803,-9.5891,23.7345,0.405811,5.26694
535,0,1.01008,-2.2075,8.33355,47.788,2.27836,-3.31242,18.9093,-2.79913,-12.1445,23.6665,-0.370585,-5.23832,17.1284,-0.212305,4.028,10.1299,3.5554,-5.77262,19.8213,1.68774,-9.51653,23.6665,0.370585,5.23832
536,0,1.1726,-2.0367,7.71678,47.6317,2.34319,-3.36494,19.464,-2.875,-11.5094,23.5972,-0.332875,-5.20608,16.4,-0.301727,4.36354,10.2293,3.40902,-6.04965,20.8551,1.5659,-9.4647,23.5972,0.332875,5.20608
537,0,1.37431,-1.87037,7.11434,47.4523,2.40631,-3.3886,19.9769,-2.9339,-10.9131,23.5279,-0.293346,-5.17017,15.5622,-0.400909,4.73534,10.3542,3.25345,-6.32808,21.9175,1.44232,-9.42968,23.5279,0.293346,5.17017
538,0,1.6082,-1.711,6.53559,47.2496,2.46912,-3.38556,20.445,-2.97626,-10.3691,23.4598,-0.251755,-5.13102,14.6119,-0.509145,5.14061,10.5058,3.08918,-6.60801,23.0059,1.31604,-9.40998,23.4598,0.251755,5.13102
539,0,1.8698,-1.56261,5.99542,47.023,2.53154,-3.35853,20.8654,-3.00356,-9.89062,23.3931,-0.208608,-5.08779,13.5498,-0.625635,5.57618,10.6855,2.91719,-6.89011,24.12,1.18636,-9.40215,23.3931,0.208608,5.08779
540,0,2.15267,-1.42786,5.50396,46.7723,2.59406,-3.31125,21.2362,-3.01617,-9.48729,23.3279,-0.163482,-5.04067,12.3782,-0.748996,6.03672,10.8939,2.73773,-7.17326,25.258,1.0528,-9.40362,23.3279,0.163482,5.04067
541,0,2.45141,-1.30877,5.0689,46.497,2.65729,-3.2478,21.5566,-3.01632,-9.16442,23.2639,-0.116432,-4.98984,11.1034,-0.877451,6.51541,11.1309,2.55063,-7.45877,26.4189,0.915587,-9.40986,23.2639,0.116432,4.98984
542,0,2.75945,-1.20684,4.69607,46.201,2.72061,-3.17262,21.8261,-3.00481,-8.92559,23.2044,-0.0679784,-4.93514,9.73732,-1.00857,7.00304,11.4007,2.35683,-7.74948,27.6019,0.772762,-9.41382,23.2044,0.0679784,4.93514
543,0,3.07452,-1.12326,4.39002,45.884,2.78448,-3.09075,22.0459,-2.98415,-8.76904,23.1479,-0.0176364,-4.87699,8.2942,-1.14038,7.49222,11.7019,2.1557,-8.04453,28.8057,0.624674,-9.41289,23.1479,0.0176364,4.87699
544,0,3.39101,-1.0576,4.14941,45.5483,2.8477,-3.00682,22.2175,-2.95508,-8.69079,23.0954,0.0340483,-4.81514,6.79361,-1.26971,7.97105,12.036,1.94787,-8.3466,30.0289,0.470151,-9.39904,23.0954,-0.0340483,4.81514
545,0,3.70618,-1.00967,3.9737,45.1968,2.91009,-2.92642,22.3429,-2.91984,-8.68347,23.0483,0.0874293,-4.74976,5.2587,-1.39381,8.42945,12.4047,1.73275,-8.65691,31.2706,0.308573,-9.36952,23.0483,-0.0874293,4.74976
546,0,4.01631,-0.978451,3.85918,44.8307,2.97063,-2.85361,22.4252,-2.87997,-8.73823,23.0055,0.141963,-4.6811,3.71552,-1.51005,8.8578,12.8071,1.51081,-8.97691,32.5293,0.138962,-9.31957,23.0055,-0.141963,4.6811
547,0,4.32059,-0.962348,3.8001,44.4514,3.02891,-2.7929,22.4678,-2.8371,-8.84293,22.9661,0.198077,-4.60954,2.19426,-1.61453,9.24191,13.2423,1.28135,-9.30871,33.8035,-0.0393503,-9.24234,22.9661,-0.198077,4.60954
548,0,4.61641,-0.960483,3.79326,44.0659,3.0833,-2.74938,22.4749,-2.79207,-8.98816,22.9342,0.255225,-4.535,0.724342,-1.70583,9.57689,13.714,1.04487,-9.65325,35.0909,-0.227916,-9.13904,22.9342,-0.255225,4.535
549,0,4.90344,-0.968893,3.82412,43.6726,3.13339,-2.72494,22.4509,-2.74611,-9.15645,22.9059,0.313635,-4.45768,-0.665142,-1.78059,9.85066,14.2179,0.80136,-10.0106,36.3889,-0.426628,-9.00566,22.9059,-0.313635,4.45768
550,0,5.18143,-0.987532,3.89249,43.2783,3.17793,-2.72238,22.3996,-2.69965,-9.34104,22.8852,0.37282,-4.37807,-1.94522,-1.83765,10.0593,14.7573,0.551308,-10.3824,37.6944,-0.637333,-8.84282,22.8852,-0.37282,4.37807
551,0,5.44947,-1.01237,3.98358,42.883,3.21657,-2.74395,22.3262,-2.65372,-9.52612,22.8692,0.433006,-4.29615,-3.09105,-1.87514,10.1962,15.3284,0.295196,-10.7671,39.0042,-0.859689,-8.65056,22.8692,-0.433006,4.29615
552,0,5.70837,-1.04202,4.09229,42.4878,3.2484,-2.78894,22.2338,-2.60818,-9.70372,22.8574,0.493712,-4.21198,-4.08313,-1.89347,10.2631,15.9293,0.0343295,-11.1644,40.3129,-1.09454,-8.43504,22.8574,-0.493712,4.21198
553,0,5.95831,-1.07412,4.20997,42.097,3.27383,-2.85662,22.1268,-2.56323,-9.86554,22.8515,0.555073,-4.1262,-4.90549,-1.89167,10.2566,16.5601,-0.23039,-11.573,41.6161,-1.34179,-8.19721,22.8515,-0.555073,4.1262
554,0,6.19999,-1.1062,4.32752,41.713,3.29216,-2.94488,22.0089,-2.51853,-10.0042,22.8522,0.616386,-4.03857,-5.54694,-1.87078,10.1803,17.2194,-0.496887,-11.9895,42.9078,-1.60048,-7.94419,22.8522,-0.616386,4.03857
555,0,6.43522,-1.13686,4.43984,41.3347,3.30433,-3.05011,21.8822,-2.47377,-10.1153,22.8572,0.677861,-3.94967,-6.0034,-1.83157,10.0371,17.9031,-0.76319,-12.4106,44.1816,-1.86911,-7.68303,22.8572,-0.677861,3.94967
556,0,6.66256,-1.16426,4.54017,40.9631,3.3105,-3.16985,21.7496,-2.42893,-10.1978,22.8663,0.739394,-3.85919,-6.27462,-1.77571,9.83282,18.6088,-1.02685,-12.832,45.431,-2.14647,-7.4201,22.8663,-0.739394,3.85919
557,0,6.88476,-1.18701,4.62349,40.5992,3.31082,-3.29728,21.6123,-2.3825,-10.2508,22.8803,0.800173,-3.76708,-6.36547,-1.70465,9.57258,19.3344,-1.28455,-13.2493,46.6483,-2.42981,-7.16271,22.8803,-0.800173,3.76708
558,0,7.1021,-1.20431,4.68682,40.2429,3.30686,-3.42923,21.4719,-2.33526,-10.2748,22.8988,0.860269,-3.67396,-6.28549,-1.62102,9.26576,20.0773,-1.53372,-13.6551,47.8265,-2.71425,-6.92019,22.8988,-0.860269,3.67396
559,0,7.31425,-1.21594,4.72936,39.8941,3.29921,-3.55996,21.3288,-2.2866,-10.2762,22.9214,0.919376,-3.57941,-6.04783,-1.52676,8.91929,20.8342,-1.7712,-14.0445,48.958,-2.99673,-6.69728,22.9214,-0.919376,3.57941
560,0,7.52232,-1.22116,4.74847,39.5514,3.2885,-3.68343,21.1835,-2.23547,-10.258,22.9473,0.977009,-3.48349,-5.66742,-1.42495,8.54431,21.6016,-1.99369,-14.4117,50.0356,-3.27251,-6.50242,22.9473,-0.977009,3.48349
561,0,7.7261,-1.2201,4.74458,39.2111,3.27599,-3.79536,21.0353,-2.18226,-10.226,22.9737,1.03335,-3.38619,-5.16344,-1.31831,8.15069,22.3746,-2.19844,-14.751,51.0529,-3.53744,-6.33932,22.9737,-1.03335,3.38619
562,0,7.92656,-1.21285,4.71806,38.8782,3.26173,-3.89145,20.8842,-2.12647,-10.1852,23.0058,1.08721,-3.28725,-4.55435,-1.20985,7.74957,23.1559,-2.38236,-15.0564,52.0032,-3.78606,-6.21315,23.0058,-1.08721,3.28725
563,0,8.12287,-1.20071,4.67363,38.5464,3.24729,-3.96765,20.7291,-2.06868,-10.1453,23.0383,1.13921,-3.18645,-3.8623,-1.1025,7.35175,23.9382,-2.54388,-15.325,52.8813,-4.01549,-6.12573,23.0383,-1.13921,3.18645
564,0,8.31573,-1.18379,4.61169,38.2155,3.23214,-4.02219,20.5698,-2.00867,-10.1084,23.0715,1.18828,-3.08391,-3.10713,-0.999081,6.9678,24.7192,-2.68015,-15.552,53.6812,-4.22079,-6.07944,23.0715,-1.18828,3.08391
565,0,8.50449,-1.16287,4.5351,37.8873,3.21738,-4.05297,20.4046,-1.94692,-10.0812,23.1087,1.23467,-2.97937,-2.30845,-0.902109,6.60719,25.5007,-2.79104,-15.7359,54.3991,-4.39947,-6.07321,23.1087,-1.23467,2.97937
566,0,8.68922,-1.13859,4.44618,37.5561,3.20246,-4.05845,20.2336,-1.88309,-10.0679,23.1443,1.27777,-2.8723,-1.48581,-0.813749,6.27814,26.2756,-2.87476,-15.8762,55.032,-4.55054,-6.10531,23.1443,-1.27777,2.8723
567,0,8.86972,-1.11246,4.35046,37.2228,3.18771,-4.03883,20.0556,-1.81861,-10.074,23.18,1.3173,-2.7627,-0.655825,-0.736616,5.99054,27.0435,-2.93125,-15.973,55.5758,-4.67249,-6.17611,23.18,-1.3173,2.7627
568,0,9.04611,-1.08455,4.24818,36.8889,3.17313,-3.99677,19.8705,-1.75404,-10.0975,23.218,1.35306,-2.65082,0.166433,-0.671261,5.7466,27.8056,-2.96119,-16.027,56.0295,-4.76474,-6.28012,23.218,-1.35306,2.65082
569,0,9.21765,-1.0555,4.14171,36.5498,3.15759,-3.93087,19.6774,-1.68879,-10.1428,23.254,1.38447,-2.53597,0.9682,-0.619501,5.55326,28.5566,-2.96434,-16.0416,56.3913,-4.82928,-6.4159,23.254,-1.38447,2.53597
570,0,9.3852,-1.02599,4.03354,36.2076,3.14104,-3.84739,19.4769,-1.62481,-10.2064,23.2903,1.41185,-2.41787,1.74024,-0.581297,5.41047,29.2976,-2.94214,-16.0193,56.6607,-4.86762,-6.57899,23.2903,-1.41185,2.41787
571,0,9.54791,-0.996578,3.92567,35.8623,3.12264,-3.74878,19.2689,-1.56262,-10.2883,23.3268,1.43426,-2.29687,2.47481,-0.556921,5.31933,30.0273,-2.89568,-15.9655,56.8373,-4.88252,-6.76557,23.3268,-1.43426,2.29687
572,0,9.70638,-0.967847,3.82028,35.5106,3.10156,-3.63817,19.0538,-1.50257,-10.3865,23.3602,1.45203,-2.17244,3.16828,-0.545241,5.27564,30.7421,-2.8266,-15.8839,56.9228,-4.87659,-6.96982,23.3602,-1.45203,2.17244
