Frame,Sub Frame,GM,SL
1,0,-0.00598907,0.00144958
1,1,-0.00614166,0.00160217
1,2,-0.0025177,0.00152588
1,3,0.000190735,0.00259399
1,4,0.000228882,0.00587463
1,5,-0.00171661,0.00785828
1,6,-0.00659943,0.00785828
1,7,-0.00400543,0.00759125
1,8,-0.000495911,0.00675201
1,9,0.00144958,0.00305176
2,0,0.00144958,0.00255585
2,1,0.000686646,0.00225067
2,2,0.00301361,0.00324249
2,3,0.00598907,0.00442505
2,4,0.00595093,0.0043869
2,5,0.00480652,0.0030899
2,6,0.00572205,-0.00110626
2,7,0.00621796,-0.00244141
2,8,0.00347137,-0.000267029
2,9,-0.00118256,0.001297
3,0,-0.00572205,0.00255585
3,1,-0.0043869,0.00171661
3,2,-0.00202179,-0.000610352
3,3,-0.000801086,-0.0019455
3,4,0.000915527,-0.0012207
3,5,0.000839233,0.000495911
3,6,-0.000839233,0.00419617
3,7,7.62939e-05,0.00476837
3,8,0.000457764,0.00389099
3,9,-0.00270844,0.00354767
4,0,-0.00102997,0.00190735
4,1,7.62939e-05,0.00217438
4,2,0.00228882,0.00247955
4,3,0.00183105,0.0030899
4,4,0.00118256,0.00164032
4,5,0.00141144,0.000114441
4,6,0.00286102,-0.000228882
4,7,0.00465393,7.62939e-05
4,8,0.00484467,0.00171661
4,9,0.00118256,0.00225067
5,0,-0.00148773,7.62939e-05
5,1,-0.0012207,-0.00339508
5,2,0.000724792,-0.00244141
5,3,0.00137329,-0.000152588
5,4,0.000495911,0.000915527
5,5,0.00202179,-0.00137329
5,6,0.00137329,-0.00297546
5,7,0.000686646,-0.00427246
5,8,0.00320435,-0.00144958
5,9,0.00434875,-0.000190735
6,0,0.00522614,-0.00114441
6,1,0.00598907,-0.00205994
6,2,0.00671387,0.00106812
6,3,0.00839233,0.00305176
6,4,0.00907898,0.00232697
6,5,0.00862122,0.00156403
6,6,0.00667572,-0.000152588
6,7,0.00530243,-0.00133514
6,8,0.00423431,-0.00400543
6,9,0.00148773,-0.0043869
7,0,-0.0038147,-0.00408173
7,1,-0.00598907,-0.00148773
7,2,-0.00499725,-0.00125885
7,3,-0.0062561,-0.00411987
7,4,-0.00652313,-0.00659943
7,5,-0.00812531,-0.0069809
7,6,-0.00923157,-0.00904083
7,7,-0.00919342,-0.00946045
7,8,-0.00366211,-0.00709534
7,9,-0.00282288,-0.0056839
8,0,-0.00469208,-0.00450134
8,1,-0.00686646,-0.00450134
8,2,-0.00682831,-0.00495911
8,3,-0.00556946,-0.00511169
8,4,-0.00450134,-0.00629425
8,5,-0.00320435,-0.00736237
8,6,-0.00221252,-0.00667572
8,7,-0.00209808,-0.00255585
8,8,-0.00236511,0.00209808
8,9,-0.00297546,0.00415802
9,0,-0.00457764,0.00339508
9,1,-0.00450134,0.00190735
9,2,-0.0030899,0.00164032
9,3,-0.00289917,0.00244141
9,4,-0.00213623,0.00362396
9,5,-0.00255585,0.00705719
9,6,-0.00492096,0.00873566
9,7,-0.000991821,0.00946045
9,8,0.00282288,0.00743866
9,9,0.00579834,0.00637054
10,0,0.00606537,0.00774384
10,1,0.00484467,0.00873566
10,2,0.00484467,0.0094986
10,3,0.00347137,0.00736237
10,4,0.00167847,0.0044632
10,5,0.00343323,0.00389099
10,6,0.00606537,0.00354767
10,7,0.00854492,0.00537872
10,8,0.00804901,0.00602722
10,9,0.00312805,0.00267029
11,0,-0.00160217,0.00087738
11,1,-0.00488281,0.00152588
11,2,-0.00526428,0.00125885
11,3,-0.00411987,0.000419617
11,4,-0.00450134,-0.0019455
11,5,-0.00465393,-0.00549316
11,6,-0.00656128,-0.00621796
11,7,-0.00469208,-0.00289917
11,8,-0.000991821,-0.000953674
11,9,-0.000228882,-0.00156403
12,0,-0.00255585,-0.0019455
12,1,-0.00293732,-0.00118256
12,2,-0.000534058,-0.000305176
12,3,0.00289917,-0.00225067
12,4,0.00579834,-0.00335693
12,5,0.00343323,-0.00335693
12,6,-0.000572205,-0.00366211
12,7,-0.000953674,-0.00465393
12,8,-0.0018692,-0.00457764
12,9,-0.00205994,-0.0043869
13,0,-0.00171661,-0.00419617
13,1,-0.00225067,-0.00232697
13,2,-0.00038147,-0.00232697
13,3,0.00171661,-0.00205994
13,4,0.00537872,-0.001297
13,5,0.00484467,0.000801086
13,6,0.000610352,0.00141144
13,7,-0.00190735,0.000152588
13,8,0.000991821,-0.000724792
13,9,0.00419617,-0.00148773
14,0,0.00175476,-0.00286102
14,1,0.00335693,-0.00347137
14,2,0.00473022,-0.00320435
14,3,0.00663757,-0.00350952
14,4,0.00923157,-0.00362396
14,5,0.0102234,-0.000610352
14,6,0.00907898,0.000228882
14,7,0.00724792,-0.000839233
14,8,0.00598907,-0.00110626
14,9,0.00244141,-0.00133514
15,0,-0.00164032,0.000801086
15,1,-0.00267029,0.00267029
15,2,-0.00118256,0.00160217
15,3,-0.000953674,-0.00133514
15,4,-0.00110626,-0.00354767
15,5,-0.000686646,-0.0038147
15,6,-0.001297,-0.00225067
15,7,-0.00354767,-0.000457764
15,8,-0.00411987,-0.000419617
15,9,-0.00705719,-0.00217438
16,0,-0.0112534,-0.00453949
16,1,-0.0123215,-0.00652313
16,2,-0.0113678,-0.00541687
16,3,-0.00656128,-0.00434875
16,4,-0.0019455,-0.00427246
16,5,-0.000953674,-0.00457764
16,6,-0.00289917,-0.0038147
16,7,-0.00305176,-0.00263214
16,8,-0.00148773,-0.00198364
16,9,-0.000190735,0.000724792
17,0,-0.00263214,0.00221252
17,1,-0.000572205,0.00434875
17,2,0.000534058,0.0044632
17,3,-0.000419617,0.00549316
17,4,0.00274658,0.00766754
17,5,-0.00106812,0.00984192
17,6,0.000114441,0.0115204
17,7,0.00259399,0.011673
17,8,0.00411987,0.0101089
17,9,0.00518799,0.00961304
18,0,0.00389099,0.00858307
18,1,0.00331879,0.00896454
18,2,0.00362396,0.00644684
18,3,0.00385284,0.00339508
18,4,0.00720978,0.00152588
18,5,0.0100327,0.00244141
18,6,0.00823975,0.00293732
18,7,0.00522614,0.00305176
18,8,0.00404358,0.00282288
18,9,-0.000419617,0.00148773
19,0,-3.8147e-05,0.00232697
19,1,-7.62939e-05,0.001297
19,2,-0.000724792,0.000648499
19,3,-0.000762939,-0.000724792
19,4,-0.00175476,-0.00282288
19,5,-0.00312805,-0.00404358
19,6,-0.00629425,-0.00354767
19,7,-0.00682831,-0.00286102
19,8,-0.00350952,-0.00339508
19,9,-0.00171661,-0.00305176
20,0,-0.0037384,-0.00385284
20,1,-0.00640869,-0.00473022
20,2,-0.00694275,-0.00679016
20,3,-0.00526428,-0.00938416
20,4,-0.00225067,-0.00976562
20,5,-0.00171661,-0.00946045
20,6,-0.00125885,-0.00968933
20,7,0.000457764,-0.0101089
20,8,0.000686646,-0.00804901
20,9,-0.00175476,-0.00377655
21,0,-0.00434875,-0.0012207
21,1,-0.00175476,-0.000343323
21,2,-0.000343323,3.8147e-05
21,3,-0.000419617,-0.000267029
21,4,-0.000114441,-0.00213623
21,5,-0.000915527,-0.00087738
21,6,-0.00244141,0.00221252
21,7,-0.000114441,0.0037384
21,8,-3.8147e-05,0.00667572
21,9,0.0019455,0.00602722
22,0,0.00385284,0.00499725
22,1,0.00450134,0.0056839
22,2,0.00511169,0.00537872
22,3,0.00797272,0.00312805
22,4,0.0106049,0.0019455
22,5,0.0104523,0.0018692
22,6,0.0094986,0.000495911
22,7,0.0094223,-0.000915527
22,8,0.00835419,-0.000228882
22,9,0.00488281,0.0038147
23,0,-0.00106812,0.00789642
23,1,-0.00328064,0.0069046
23,2,-0.00396729,0.00637054
23,3,-0.00160217,0.00930786
23,4,0,0.0120926
23,5,-0.000839233,0.0107193
23,6,-0.00244141,0.00801086
23,7,-0.00347137,0.00476837
23,8,-0.00320435,0.00156403
23,9,-0.00144958,-0.000343323
24,0,0.000457764,0.000114441
24,1,0.00152588,0.000267029
24,2,0.00171661,-3.8147e-05
24,3,0.0019455,-0.00175476
24,4,0.000839233,-0.00209808
24,5,-0.000534058,0.00133514
24,6,-0.00144958,0.0025177
24,7,-0.000495911,0.000572205
24,8,0.000839233,-0.00320435
24,9,-0.00164032,-0.00350952
25,0,-0.00480652,-0.00102997
25,1,-0.00144958,-0.0019455
25,2,0.00263214,-0.00534058
25,3,0.00358582,-0.00621796
25,4,0.00339508,-0.00465393
25,5,0.00038147,-0.0056076
25,6,-0.0037384,-0.00762939
25,7,-0.00400543,-0.00656128
25,8,-0.00431061,-0.00610352
25,9,-0.00328064,-0.00617981
26,0,-0.00408173,-0.00629425
26,1,-0.00679016,-0.00427246
26,2,-0.00453949,-0.00209808
26,3,-0.000343323,-0.00247955
26,4,0.00427246,-0.00263214
26,5,0.00648499,-0.00102997
26,6,0.0050354,-0.000343323
26,7,0.00255585,-0.000991821
26,8,0.00297546,-0.00347137
26,9,0.000495911,-0.00358582
27,0,-0.00385284,-0.0031662
27,1,-0.00740051,-0.0019455
27,2,-0.00869751,-0.00202179
27,3,-0.00701904,-0.00171661
27,4,-0.00457764,-0.00125885
27,5,-0.00415802,-0.00205994
27,6,-0.00427246,-0.000648499
27,7,-0.00530243,0.00190735
27,8,-0.00247955,0.00240326
27,9,-0.00190735,0.00118256
28,0,0.000953674,0.00232697
28,1,-0.00183105,0.00514984
28,2,0.000152588,0.00324249
28,3,0.00205994,-0.00087738
28,4,0.00362396,-0.00400543
28,5,0.00324249,-0.00408173
28,6,0.00167847,-0.00347137
28,7,0.00167847,-0.00114441
28,8,0.00167847,0.00118256
28,9,-3.8147e-05,0.00274658
29,0,-0.000534058,0.00583649
29,1,0.000686646,0.00720978
29,2,0.00274658,0.00694275
29,3,0.00240326,0.00686646
29,4,-0.00225067,0.0063324
29,5,-0.00720978,0.0087738
29,6,-0.00930786,0.00953674
29,7,-0.000267029,0.00812531
29,8,0.00972748,0.00736237
29,9,0.0106049,0.00713348
30,0,0.00843048,0.00728607
30,1,0.00640869,0.00576019
30,2,0.00587463,0.00404358
30,3,0.00862122,0.000801086
30,4,0.0125504,0.000114441
30,5,0.0148773,-0.000114441
30,6,0.0149155,-0.00144958
30,7,0.0113297,-0.0031662
30,8,0.0075531,-0.00476837
30,9,0.00385284,-0.00442505
31,0,0.000228882,-0.00331879
31,1,-0.00102997,-0.00183105
31,2,-0.00312805,-0.00133514
31,3,-0.00450134,-0.00240326
31,4,-0.00137329,-0.00152588
31,5,-0.000114441,-0.00267029
31,6,-0.00160217,-0.00205994
31,7,0.00167847,-0.000648499
31,8,0.00694275,-0.00179291
31,9,0.0056076,-0.00164032
32,0,0.00423431,-0.00301361
32,1,0.0030899,-0.00335693
32,2,0.00125885,-0.00354767
32,3,-0.00038147,-0.00358582
32,4,-0.0025177,-0.00453949
32,5,-0.00343323,-0.00358582
32,6,-0.00278473,-0.00171661
32,7,-0.00236511,-0.000495911
32,8,-0.00450134,-0.000305176
32,9,-0.00556946,-0.000610352
33,0,-0.00549316,0.000686646
33,1,-0.00484467,0.000762939
33,2,-0.00461578,0.00118256
33,3,-0.00419617,0.00244141
33,4,-0.00354767,0.00255585
33,5,-0.0050354,0.00240326
33,6,-0.00816345,0.00259399
33,7,-0.00774384,0.00358582
33,8,-0.00331879,0.0056839
33,9,-0.00144958,0.00507355
34,0,-0.00156403,0.00518799
34,1,-0.00221252,0.00343323
34,2,-0.00255585,7.62939e-05
34,3,-0.000152588,-0.00240326
34,4,0.00331879,-0.00183105
34,5,0.0043869,0.00144958
34,6,0.00492096,0.001297
34,7,0.0044632,0.00114441
34,8,0.00389099,-0.000839233
34,9,-0.000152588,-0.00232697
35,0,-0.00473022,-0.00289917
35,1,-0.00499725,-0.00457764
35,2,-0.00232697,-0.00598907
35,3,-0.00152588,-0.00602722
35,4,-0.00297546,-0.00675201
35,5,-0.00205994,-0.00938416
35,6,-0.00331879,-0.010643
35,7,-0.000228882,-0.00938416
35,8,0.00125885,-0.0063324
35,9,0.000724792,-0.00476837
36,0,0.00167847,-0.0056076
36,1,0,-0.00652313
36,2,-0.00171661,-0.00659943
36,3,-0.00221252,-0.00587463
36,4,-0.0038147,-0.00720978
36,5,-0.00480652,-0.00637054
36,6,-0.00526428,-0.0031662
36,7,-0.00286102,0.000190735
36,8,-0.00038147,0.00175476
36,9,0.00160217,0.00385284
37,0,0.000839233,0.00488281
37,1,-0.000534058,0.00476837
37,2,-0.000343323,0.00408173
37,3,0.00183105,0.00640869
37,4,0.00396729,0.00930786
37,5,7.62939e-05,0.0108337
37,6,-0.00175476,0.0106812
37,7,-0.00274658,0.00835419
37,8,0.00320435,0.00732422
37,9,0.00354767,0.0056839
38,0,0.00263214,0.00499725
38,1,0.00297546,0.00747681
38,2,0.00602722,0.00831604
38,3,0.0101089,0.00717163
38,4,0.0114441,0.00720978
38,5,0.00984192,0.00591278
38,6,0.0087738,0.00400543
38,7,0.00953674,0.00114441
38,8,0.00873566,-0.00343323
38,9,0.00465393,-0.00473022
39,0,0.000762939,-0.0038147
39,1,-0.000762939,-0.00354767
39,2,-0.00164032,-0.00354767
39,3,-0.00183105,-0.00255585
39,4,-0.000343323,-0.00263214
39,5,0.000724792,-0.00534058
39,6,-0.00419617,-0.0056839
39,7,-0.00343323,-0.00423431
39,8,0.000190735,-0.00385284
39,9,0.00282288,-0.0030899
40,0,0.00190735,-0.00267029
40,1,-0.00198364,0.000228882
40,2,-0.00213623,0.00385284
40,3,0.000228882,0.00324249
40,4,0.00171661,-0.000762939
40,5,0.00232697,-0.00370026
40,6,0.00114441,-0.0031662
40,7,-0.000648499,0.000419617
40,8,-0.00324249,0.000915527
40,9,-0.00534058,0.00236511
41,0,-0.00732422,0.00591278
41,1,-0.00606537,0.00617981
41,2,-0.00362396,0.00469208
41,3,-0.00141144,0.00705719
41,4,-0.00164032,0.00957489
41,5,-0.00205994,0.00762939
41,6,-0.00202179,0.00457764
41,7,-0.000991821,0.0031662
41,8,0.00202179,0.00556946
41,9,0.0025177,0.00686646
42,0,0.00156403,0.00621796
42,1,0.00301361,0.0063324
42,2,0.00541687,0.00511169
42,3,0.00656128,0.00137329
42,4,0.00709534,-0.00209808
42,5,0.00545502,-0.00148773
42,6,0.00530243,0
42,7,0.00450134,-0.000190735
42,8,0.00320435,-0.00202179
42,9,-0.00247955,-0.000953674
43,0,-0.00705719,0.000572205
43,1,-0.0063324,-0.000534058
43,2,-0.0056839,-0.00335693
43,3,-0.00469208,-0.00598907
43,4,-0.00495911,-0.00663757
43,5,-0.00629425,-0.00743866
43,6,-0.00507355,-0.00686646
43,7,0.000839233,-0.0044632
43,8,0.0044632,-0.00385284
43,9,0.00125885,-0.00408173
44,0,-0.00392914,-0.00453949
44,1,-0.00919342,-0.00526428
44,2,-0.0120163,-0.00659943
44,3,-0.0107574,-0.00602722
44,4,-0.00797272,-0.00785828
44,5,-0.00205994,-0.00988007
44,6,0.00537872,-0.00862122
44,7,0.00736237,-0.00663757
44,8,0.00736237,-0.00507355
44,9,0.00656128,-0.00411987
45,0,0.000534058,-0.00114441
45,1,-0.00442505,0.00179291
45,2,-0.00389099,0.00347137
45,3,0.00247955,0.00221252
45,4,0.0062561,-0.00144958
45,5,0.0012207,-0.00156403
45,6,-0.00614166,0.000762939
45,7,-0.00518799,0.00320435
45,8,0.000915527,0.00198364
45,9,0.00411987,0.00305176
46,0,0.00320435,0.000648499
46,1,0.000419617,-0.00267029
46,2,-0.00125885,-0.00408173
46,3,0.000572205,-0.00453949
46,4,0.00778198,-0.00274658
46,5,0.0120926,-0.000762939
46,6,0.0137329,3.8147e-05
46,7,0.0118256,-0.000305176
46,8,0.00789642,-0.000419617
46,9,0.00160217,-0.000114441
47,0,-0.0044632,0.00263214
47,1,-0.00602722,0.0043869
47,2,-0.00408173,0.00411987
47,3,-0.00263214,0.00202179
47,4,-0.00293732,0.000762939
47,5,-0.00377655,0.00160217
47,6,-0.00221252,0.00247955
47,7,-0.00144958,0.00286102
47,8,-0.00038147,0.00137329
47,9,-0.00255585,-0.000267029
48,0,-0.00507355,0.000648499
48,1,-0.0044632,0.00102997
48,2,-0.0030899,-0.00179291
48,3,-0.000495911,-0.0037384
48,4,-0.0012207,-0.00339508
48,5,-0.00293732,-0.00225067
48,6,-0.00328064,-0.00267029
48,7,-0.00244141,-0.00183105
48,8,-0.00289917,3.8147e-05
48,9,-0.00297546,0.0038147
49,0,-0.00404358,0.00572205
49,1,-0.00411987,0.00606537
49,2,-0.00324249,0.0062561
49,3,-0.000991821,0.0069809
49,4,-0.000343323,0.00793457
49,5,-0.000686646,0.00835419
49,6,-0.00160217,0.00892639
49,7,-0.00236511,0.00808716
49,8,0.00167847,0.00717163
49,9,0.00301361,0.00564575
50,0,0.00286102,0.00423431
50,1,0.00423431,0.00293732
50,2,0.0044632,0.00156403
50,3,0.00480652,-0.000610352
50,4,0.00873566,-0.00133514
50,5,0.0101852,-0.0018692
50,6,0.00801086,-0.0030899
50,7,0.00598907,-0.00350952
50,8,0.00476837,-0.00339508
50,9,0.00247955,-0.00202179
51,0,-0.00156403,-0.00175476
51,1,-0.00297546,-0.00324249
51,2,-0.000267029,-0.00442505
51,3,0,-0.00469208
51,4,-0.00209808,-0.0044632
51,5,-0.00610352,-0.00534058
51,6,-0.00431061,-0.00518799
51,7,-0.00209808,-0.00518799
51,8,0.00171661,-0.00392914
51,9,0.00038147,-0.00492096
52,0,0.00110626,-0.00682831
52,1,0.00137329,-0.00640869
52,2,0.00213623,-0.0056839
52,3,0.000152588,-0.00705719
52,4,-0.00480652,-0.00766754
52,5,-0.00488281,-0.0087738
52,6,-0.00240326,-0.00736237
52,7,-0.000762939,-0.00747681
52,8,0.000419617,-0.00808716
52,9,-0.00110626,-0.00541687
53,0,-0.00244141,-0.00156403
53,1,-0.0037384,0.00183105
53,2,-0.00411987,0.00724792
53,3,-0.00415802,0.00831604
53,4,-0.00183105,0.00720978
53,5,0.000457764,0.00679016
53,6,-0.00137329,0.00675201
53,7,-0.00144958,0.00549316
53,8,0.000610352,0.00301361
53,9,0.00297546,0.000724792
54,0,0.00553131,0.000724792
54,1,0.00450134,7.62939e-05
54,2,0.00396729,-0.000610352
54,3,0.00545502,-0.000801086
54,4,0.00785828,0.000610352
54,5,0.00801086,0.00240326
54,6,0.0069046,0.00175476
54,7,0.0043869,0.000648499
54,8,0.00217438,0.000534058
54,9,-0.00144958,7.62939e-05
55,0,-0.00190735,0.000991821
55,1,0.00228882,0.00179291
55,2,0.00644684,0.000152588
55,3,0.0082016,-0.00331879
55,4,0.00911713,-0.0043869
55,5,0.00675201,-0.00408173
55,6,-0.000572205,0.000610352
55,7,-0.00431061,0.00339508
55,8,-0.00419617,0.00507355
55,9,-0.00175476,0.00328064
56,0,-0.000457764,0.00118256
56,1,-0.00217438,-0.000267029
56,2,-0.00221252,0.00106812
56,3,-0.000801086,-0.000495911
56,4,0.000801086,-0.00305176
56,5,0.000724792,-0.00255585
56,6,0.000152588,0.000495911
56,7,-0.00164032,-0.000343323
56,8,-0.00392914,-0.0019455
56,9,-0.00545502,-0.00133514
57,0,-0.00766754,0.00152588
57,1,-0.00747681,0.00328064
57,2,-0.00720978,0.00400543
57,3,-0.00694275,0.00270844
57,4,-0.00328064,0.0030899
57,5,-0.00205994,0.00267029
57,6,-0.000305176,0.0019455
57,7,-0.00038147,0.00488281
57,8,-0.00106812,0.00751495
57,9,-0.00366211,0.00656128
58,0,-0.00656128,0.00411987
58,1,-0.00602722,0.00274658
58,2,-0.00461578,0.00255585
58,3,-0.00175476,0.00236511
58,4,0.00404358,0.00305176
58,5,0.0101471,0.00610352
58,6,0.0128937,0.00743866
58,7,0.0102615,0.00415802
58,8,0.00518799,0.00118256
58,9,-0.000343323,-0.00087738
59,0,-0.00782013,-0.000724792
59,1,-0.00865936,-0.00137329
59,2,-0.00564575,-0.000801086
59,3,-0.00179291,-0.00244141
59,4,-0.000419617,-0.00457764
59,5,-0.00137329,-0.00667572
59,6,-0.00480652,-0.00827789
59,7,-0.00347137,-0.00896454
59,8,-0.00320435,-0.00675201
59,9,0.000152588,-0.0037384
60,0,-0.000610352,-0.00312805
60,1,-0.00209808,-0.00301361
60,2,-0.0031662,-0.00305176
60,3,-0.00305176,-0.00274658
60,4,-0.00141144,-0.00205994
60,5,0.00320435,-0.00213623
60,6,0.00919342,-0.00141144
60,7,0.0102997,-0.000839233
60,8,0.00621796,-0.000953674
60,9,0.00312805,0.000343323
61,0,-0.000534058,0.00408173
61,1,-0.00293732,0.00461578
61,2,-0.00377655,0.0044632
61,3,-0.00362396,0.00293732
61,4,0.000267029,0.000495911
61,5,0.00511169,-0.00164032
61,6,0.00480652,-0.00087738
61,7,0.00297546,0.00087738
61,8,0.00514984,0.00354767
61,9,0.00656128,0.00808716
62,0,0.0038147,0.0117111
62,1,0.00114441,0.0106049
62,2,0.00331879,0.00835419
62,3,0.0101471,0.00537872
62,4,0.0159454,0.00198364
62,5,0.014801,-0.000152588
62,6,0.00644684,0.000953674
62,7,-0.00209808,-0.00087738
62,8,-0.00404358,-0.00934601
62,9,-0.00301361,-0.00564575
63,0,-0.00282288,0.0107574
63,1,-0.000762939,0.0174332
63,2,3.8147e-05,0.00656128
63,3,-0.000839233,-0.0056076
63,4,0.00183105,-0.00301361
63,5,0.00534058,0.00263214
63,6,0.00392914,0.00679016
63,7,0.00179291,0.0056076
63,8,0.0018692,-0.0170898
63,9,0.000801086,-0.0396729
64,0,-3.8147e-05,-0.029335
64,1,-0.001297,-0.00934601
64,2,-0.000152588,-0.00286102
64,3,0.00232697,-0.0056076
64,4,0.00621796,-0.00675201
64,5,0.00892639,-0.00576019
64,6,0.00808716,-0.00484467
64,7,0.00713348,-0.00854492
64,8,0.00469208,-0.0127029
64,9,0.00221252,-0.0125122
65,0,-0.00179291,-0.00480652
65,1,-0.00202179,0.00576019
65,2,-0.00110626,0.00911713
65,3,-0.000152588,0.0062561
65,4,-0.00038147,0.00328064
65,5,-0.00255585,0.00244141
65,6,-0.00907898,0.0018692
65,7,-0.0117111,0.00236511
65,8,-0.0106049,0.0050354
65,9,-0.0108719,0.00782013
66,0,-0.0134659,0.00865936
66,1,-0.0124359,0.00785828
66,2,-0.0100327,0.00511169
66,3,-0.00663757,0.00389099
66,4,-0.00297546,0.00465393
66,5,-0.00244141,0.00610352
66,6,-0.0037384,0.00667572
66,7,-0.00637054,0.00576019
66,8,-0.00789642,0.00518799
66,9,-0.0121689,0.00240326
67,0,-0.0149155,0.000305176
67,1,-0.012207,0.00217438
67,2,-0.00751495,0.00507355
67,3,-0.00480652,0.00751495
67,4,-0.00286102,0.0102997
67,5,-0.00164032,0.00930786
67,6,-0.00343323,0.00770569
67,7,-0.00553131,0.00843048
67,8,-0.000839233,0.00976562
67,9,0.00183105,0.0106812
68,0,0.00434875,0.00667572
68,1,0.00415802,-0.00804901
68,2,0.00434875,-0.0223923
68,3,0.00347137,-0.0200653
68,4,0.00331879,-0.00659943
68,5,0.000686646,-0.000190735
68,6,0.00167847,-0.00408173
68,7,0.00999451,-0.0147629
68,8,0.0198364,-0.0248337
68,9,0.018692,-0.0219345
69,0,0.0108719,-0.0110245
69,1,0.00541687,-0.00202179
69,2,7.62939e-05,0.00202179
69,3,-0.00236511,0.00350952
69,4,0.000991821,0.0056076
69,5,0.00671387,0.0056839
69,6,0.0063324,0.00247955
69,7,0.00205994,0.0025177
69,8,0.0044632,0.00263214
69,9,0.00892639,0.0025177
70,0,0.0136185,0.00133514
70,1,0.0125885,-0.000801086
70,2,0.0120544,-0.0018692
70,3,0.0120163,-0.00278473
70,4,0.0124359,-0.00488281
70,5,0.0113678,-0.00564575
70,6,0.00900269,-0.00366211
70,7,0.0063324,-0.00221252
70,8,0.00480652,-0.000572205
70,9,0.00286102,0.000343323
71,0,-0.000495911,0.001297
71,1,-0.00450134,0.000457764
71,2,-0.00526428,0.000762939
71,3,-0.00236511,0.00244141
71,4,-0.00236511,0.00415802
71,5,-0.00694275,0.00545502
71,6,-0.014534,0.00701904
71,7,-0.0154495,0.00614166
71,8,-0.0122452,0.00598907
71,9,-0.00411987,0.0056839
72,0,-0.00434875,0.00396729
72,1,-0.00888824,0.00499725
72,2,-0.0123596,0.00640869
72,3,-0.0114822,0.0044632
72,4,-0.0056076,0.000610352
72,5,-0.00118256,0.000572205
72,6,-0.00198364,0.000953674
72,7,-0.00495911,0.00282288
72,8,-0.00556946,0.00411987
72,9,-0.00629425,0.0037384
73,0,-0.00663757,0.00278473
73,1,-0.00629425,0.00137329
73,2,-0.00553131,0.000419617
73,3,-0.00648499,-0.00118256
73,4,-0.0044632,-0.000572205
73,5,-0.00530243,-0.00198364
73,6,-0.0069809,-0.00484467
73,7,-0.00419617,-0.00473022
73,8,0.00282288,-0.00305176
73,9,0.0075531,-0.00125885
74,0,0.00743866,-0.00347137
74,1,0.00125885,-0.00396729
74,2,-0.000152588,-0.00507355
74,3,0.00396729,-0.0056839
74,4,0.00843048,-0.00282288
74,5,0.00865936,-0.000724792
74,6,0.00640869,-0.000724792
74,7,0.00553131,-0.00198364
74,8,0.00469208,-0.00312805
74,9,0.00629425,-0.00492096
75,0,0.00549316,-0.00286102
75,1,0.00366211,0.00038147
75,2,0.00389099,0.000724792
75,3,0.00244141,-7.62939e-05
75,4,0.000495911,0.00144958
75,5,-3.8147e-05,0.00293732
75,6,-0.00392914,0.00179291
75,7,-0.00965118,0.00228882
75,8,-0.0117874,0.00335693
75,9,-0.01091,0.00427246
76,0,-0.0101471,0.00476837
76,1,-0.00484467,0.00343323
76,2,0.00354767,0.00404358
76,3,0.00854492,0.00640869
76,4,0.00984192,0.00762939
76,5,0.00911713,0.0094223
76,6,0.00850677,0.0115204
76,7,0.00747681,0.0087738
76,8,0.00411987,0.00469208
76,9,-0.0019455,0.00362396
77,0,-0.00637054,0.00595093
77,1,-0.0105286,0.00759125
77,2,-0.00816345,0.00598907
77,3,-0.00530243,0.0019455
77,4,-0.000724792,0.000991821
77,5,0.00450134,0.00141144
77,6,0.00492096,-0.00102997
77,7,0.00228882,-0.00545502
77,8,0.00511169,-0.00736237
77,9,0.00831604,-0.00835419
78,0,0.0069809,-0.00839233
78,1,0.00717163,-0.00507355
78,2,0.0062561,0.00190735
78,3,0.00614166,0.00862122
78,4,0.00541687,0.00785828
78,5,0.00358582,-0.00183105
78,6,0.000801086,-0.00907898
78,7,0.00106812,-0.00591278
78,8,0.00854492,-0.00514984
78,9,0.0153732,-0.010376
79,0,0.0139999,-0.0176239
79,1,0.00782013,-0.0220871
79,2,0.00579834,-0.0239944
79,3,0.00480652,-0.02491
79,4,0.00370026,-0.0222015
79,5,0.00274658,-0.0185013
79,6,-0.00133514,-0.0131226
79,7,-0.00343323,-0.00988007
79,8,-0.00282288,-0.00724792
79,9,-0.00293732,-0.00537872
80,0,-0.0126648,-0.00366211
80,1,-0.0165558,-0.00137329
80,2,-0.0120163,0.00156403
80,3,0.00110626,0.00362396
80,4,0.00953674,0.00556946
80,5,0.00846863,0.00720978
80,6,0.00335693,0.0133896
80,7,0.000534058,0.023613
80,8,-0.000762939,0.0321198
80,9,-0.0107574,0.0275421
81,0,-0.0266266,0.0105286
81,1,-0.0337219,-0.00549316
81,2,-0.0263596,-0.00976562
81,3,-0.0150299,-0.00213623
81,4,-0.00102997,0.00572205
81,5,0.00980377,0.00137329
81,6,0.00831604,-0.00793457
81,7,0.0043869,-0.00782013
81,8,0.00789642,0.000610352
81,9,0.0113678,0.00782013
82,0,0.0087738,0.00537872
82,1,0.00453949,0.00263214
82,2,0.00335693,0.00171661
82,3,0.00679016,-0.00263214
82,4,0.0102615,-0.00427246
82,5,0.00740051,-0.000572205
82,6,0.00339508,0.00389099
82,7,0.00225067,0.00457764
82,8,0.000495911,0.0012207
82,9,-0.00541687,0.000724792
83,0,-0.0125885,0.00724792
83,1,-0.0174332,0.0138474
83,2,-0.0188065,0.0162125
83,3,-0.0126648,0.017662
83,4,-0.00404358,0.0121307
83,5,-0.000610352,-0.00400543
83,6,-0.00648499,-0.0146103
83,7,-0.0075531,-0.00881195
83,8,-0.00339508,-0.0119019
83,9,0.00366211,-0.0140381
84,0,0.00598907,-0.00110626
84,1,0.00717163,0.00900269
84,2,0.00923157,0.00759125
84,3,0.00728607,0.0063324
84,4,0.00392914,0.0117874
84,5,0.0019455,0.0198364
84,6,0.00217438,0.018959
84,7,0.00350952,0.000953674
84,8,0.00389099,-0.017662
84,9,0.000991821,-0.0187302
85,0,-0.00404358,-0.00831604
85,1,-0.00774384,-0.000534058
85,2,-0.00846863,0.000267029
85,3,-0.00694275,-0.0043869
85,4,-0.00518799,-0.00652313
85,5,-0.0038147,-0.00358582
85,6,-0.00831604,3.8147e-05
85,7,-0.00930786,0.0050354
85,8,-0.00156403,0.00888824
85,9,0.00236511,0.0136185
86,0,0.00267029,0.015831
86,1,0.000534058,0.0106812
86,2,-0.000724792,-0.00164032
86,3,0.00499725,-0.00938416
86,4,0.00865936,-0.010376
86,5,0.00564575,-0.00770569
86,6,0.00370026,-0.00743866
86,7,0.00343323,-0.0116348
86,8,0.00156403,-0.0137329
86,9,0.000915527,-0.00946045
87,0,0.00297546,-0.000724792
87,1,0.00202179,0.00179291
87,2,-0.00038147,-0.00362396
87,3,-0.00225067,-0.0104904
87,4,-0.00312805,-0.0152969
87,5,-0.00427246,-0.0174713
87,6,-0.00606537,-0.0135803
87,7,-0.00488281,-0.00991821
87,8,0.00171661,-0.00759125
87,9,0.00854492,-0.0069809
88,0,0.0104141,-0.00682831
88,1,0.00679016,-0.00453949
88,2,0.00114441,-0.00492096
88,3,0.00236511,-0.00911713
88,4,0.00782013,-0.0112152
88,5,0.00629425,-0.0050354
88,6,-0.000801086,0.00263214
88,7,-0.00701904,0.00988007
88,8,-0.00713348,0.0162506
88,9,-0.00576019,0.0195694
89,0,-0.00389099,0.0166702
89,1,0.000457764,0.00782013
89,2,0.00514984,-0.00213623
89,3,0.00518799,-0.00522614
89,4,0.00244141,0.00396729
89,5,-0.00190735,0.0114059
89,6,-0.00362396,0.0116348
89,7,-0.0038147,0.00804901
89,8,-0.00244141,0.00522614
89,9,-0.0031662,0.00682831
90,0,-0.00190735,0.00873566
90,1,0.00648499,0.0115204
90,2,0.0154495,0.0153732
90,3,0.0168228,0.0139618
90,4,0.0140381,0.0127411
90,5,0.00701904,0.0164413
90,6,0.001297,0.0211716
90,7,-0.00343323,0.0218201
90,8,-0.00793457,0.0170135
90,9,-0.00968933,0.0113297
91,0,-0.00839233,0.00205994
91,1,-0.00732422,-0.00164032
91,2,-0.00587463,-0.00488281
91,3,-0.0063324,-0.019455
91,4,-0.00534058,-0.0322723
91,5,-0.00591278,-0.0230408
91,6,-0.00873566,-0.00450134
91,7,-0.00911713,0.00427246
91,8,-0.00511169,0.0043869
91,9,-0.001297,-0.00133514
92,0,0.00396729,-0.00740051
92,1,0.00453949,-0.00854492
92,2,0.00362396,-0.0056076
92,3,0.00453949,-0.000267029
92,4,0.00553131,0.00293732
92,5,0.00492096,-0.00267029
92,6,0.00164032,-0.0101852
92,7,0.0030899,-0.0170135
92,8,0.00984192,-0.0216675
92,9,0.0138474,-0.0217438
93,0,0.00862122,-0.0163651
93,1,-0.00328064,-0.0102615
93,2,-0.00743866,-0.0043869
93,3,-0.000534058,0.00484467
93,4,0.000915527,0.0191116
93,5,-0.00392914,0.0227356
93,6,-0.0165939,0.0154495
93,7,-0.0233459,0.00492096
93,8,-0.0133514,-0.001297
93,9,-0.000305176,-0.00667572
94,0,0.0163269,-0.0127792
94,1,0.0270462,-0.0185394
94,2,0.0341415,-0.0122833
94,3,0.0338364,0.000495911
94,4,0.0229645,0.00766754
94,5,0.0069046,0.00789642
94,6,-0.00152588,0.0056076
94,7,0.00267029,0.00675201
94,8,0.014801,0.00797272
94,9,0.0152206,0.00221252
95,0,0.000915527,-0.000534058
95,1,-0.0175095,0.00228882
95,2,-0.0243378,0.00339508
95,3,-0.0183487,0.00175476
95,4,-0.0102234,-0.00202179
95,5,-0.00667572,-0.00598907
95,6,-0.00946045,-0.00797272
95,7,-0.00991821,-0.00583649
95,8,-0.00862122,-0.00335693
95,9,-0.0121307,-0.00213623
96,0,-0.0175095,-0.00301361
96,1,-0.0181198,-0.00576019
96,2,-0.0134659,-0.00812531
96,3,-0.00705719,-0.00823975
96,4,-0.00137329,-0.00556946
96,5,-0.00221252,-0.00400543
96,6,-0.00465393,-0.0043869
96,7,-0.00648499,-0.00377655
96,8,-0.0088501,-0.00431061
96,9,-0.0112534,-0.00347137
97,0,-0.0124359,-0.00289917
97,1,-0.0114059,-0.00171661
97,2,-0.00804901,-0.000419617
97,3,-0.0062561,0.00343323
97,4,-0.00453949,0.0062561
97,5,-0.00427246,0.00946045
97,6,-0.0075531,0.0149918
97,7,-0.00968933,0.0178146
97,8,-0.00453949,0.0194168
97,9,-0.00232697,0.0215912
98,0,0.001297,0.0193787
98,1,0.00671387,0.00881195
98,2,0.0159073,-0.00881195
98,3,0.0209045,-0.0241089
98,4,0.0225449,-0.0270462
98,5,0.0198746,-0.0159836
98,6,0.0140762,-0.00144958
98,7,0.0127411,0.00965118
98,8,0.0138092,0.0137329
98,9,0.0069046,0.00865936
99,0,0.000228882,0.0031662
99,1,0.00465393,0.00160217
99,2,0.0122452,0.00137329
99,3,0.0167084,0.00087738
99,4,0.015564,0.00171661
99,5,0.0115967,0.00564575
99,6,0.00301361,0.00858307
99,7,-0.0018692,0.0043869
99,8,0.00480652,-0.000801086
99,9,0.0116348,-0.00461578
100,0,0.00873566,-0.00434875
100,1,0.00118256,-0.00164032
100,2,-0.0018692,-0.00118256
100,3,7.62939e-05,-0.00289917
100,4,0.00156403,-0.00320435
100,5,0.000915527,-0.00389099
100,6,-0.00038147,-0.00415802
100,7,-0.00232697,-0.00457764
100,8,-0.00617981,-0.00614166
100,9,-0.00846863,-0.00644684
101,0,-0.00988007,-0.00179291
101,1,-0.0094986,0.00400543
101,2,-0.00598907,0.0056076
101,3,-0.00957489,0.00522614
101,4,-0.0121307,0.0056076
101,5,-0.00957489,0.00457764
101,6,-0.00652313,0.00404358
101,7,-0.00743866,0.00274658
101,8,-0.00766754,0.00431061
101,9,-0.00408173,0.00556946
102,0,-0.000534058,0.00526428
102,1,0.000762939,0.00499725
102,2,-0.00171661,0.00461578
102,3,-0.00312805,0.00247955
102,4,-0.00106812,-0.000343323
102,5,0.00400543,-0.00366211
102,6,0.00778198,-0.00270844
102,7,0.00751495,0.000267029
102,8,0.00457764,3.8147e-05
102,9,-0.00213623,-0.00141144
103,0,-0.00774384,0.00350952
103,1,-0.0120163,0.00907898
103,2,-0.0113678,0.00724792
103,3,-0.00965118,0.00133514
103,4,-0.00816345,-0.0044632
103,5,-0.00358582,-0.00648499
103,6,0.00236511,-0.00366211
103,7,0.00831604,0.000114441
103,8,0.00888824,0.00415802
103,9,0.00656128,0.00785828
104,0,-3.8147e-05,0.00671387
104,1,-0.00175476,0.00469208
104,2,0.00396729,0.000686646
104,3,0.00713348,-0.0108719
104,4,0.00782013,-0.0203323
104,5,0.0030899,-0.0208282
104,6,-0.000267029,-0.0147629
104,7,-0.000267029,-0.0088501
104,8,0.0025177,-0.00637054
104,9,0.00450134,-0.00354767
105,0,0.00385284,-0.000915527
105,1,0.00358582,-0.00141144
105,2,0.00553131,-0.00282288
105,3,0.00556946,-0.00175476
105,4,0.00526428,0.00133514
105,5,0.000343323,0.00125885
105,6,-0.00602722,0.000991821
105,7,-0.00816345,0.00164032
105,8,-0.00484467,0.00274658
105,9,0.00160217,0.00514984
106,0,0.000686646,0.00453949
106,1,0.00347137,0.00209808
106,2,0.00396729,-0.000152588
106,3,0.00530243,-0.00469208
106,4,0.00839233,-0.0154114
106,5,0.0101471,-0.0170517
106,6,0.00923157,-0.00450134
106,7,0.00709534,0.0069046
106,8,0.00499725,0.0122833
106,9,0.0018692,0.01297
107,0,-0.000190735,0.00785828
107,1,-0.00179291,-0.0088501
107,2,0.00038147,-0.020752
107,3,0.00152588,-0.0167847
107,4,0.00202179,-0.010376
107,5,-0.000762939,-0.0140381
107,6,-0.00469208,-0.0179672
107,7,-0.00518799,-0.0177765
107,8,-0.00492096,-0.0147629
107,9,-0.00244141,-0.00331879
108,0,-0.00377655,0.0139236
108,1,-0.00679016,0.0297546
108,2,-0.00484467,0.0338364
108,3,0.00087738,0.0288773
108,4,0.00495911,0.0222778
108,5,0.00377655,0.0156021
108,6,0.00331879,0.00835419
108,7,0.00522614,0.00038147
108,8,0.00343323,-0.015831
108,9,-0.00450134,-0.0251389
109,0,-0.0112534,-0.0143051
109,1,-0.0104523,0.00469208
109,2,-0.0088501,0.0129318
109,3,-0.00793457,0.0088501
109,4,-0.00408173,0.00354767
109,5,0.00118256,0.00259399
109,6,-0.000267029,0.00175476
109,7,-0.00114441,-0.0019455
109,8,-0.000495911,-0.00274658
109,9,-0.00190735,0.00797272
110,0,-0.0063324,0.021286
110,1,-0.00469208,0.0220871
110,2,0.000343323,0.0123596
110,3,0.00713348,0.00282288
110,4,0.0120544,-0.00236511
110,5,0.0144958,-0.00511169
110,6,0.0115585,-0.00286102
110,7,0.00740051,0.00236511
110,8,0.00549316,0.000267029
110,9,0.00286102,-0.00671387
111,0,-0.00102997,-0.00804901
111,1,-0.00190735,-0.00598907
111,2,0.000801086,-0.00110626
111,3,-0.00190735,0.00549316
111,4,-0.00862122,0.00835419
111,5,-0.00846863,0.00461578
111,6,-0.00705719,-0.0018692
111,7,-0.00476837,-0.00545502
111,8,-0.0025177,-0.00293732
111,9,0.000228882,0.00289917
112,0,0.000953674,0.00644684
112,1,0.00339508,0.00595093
112,2,0.00255585,0.00411987
112,3,0.00125885,0.00331879
112,4,-0.00240326,0.00415802
112,5,-0.00782013,0.00518799
112,6,-0.00850677,0.00297546
112,7,-0.00709534,0.00038147
112,8,-0.00442505,-0.00167847
112,9,-0.00259399,-0.0043869
113,0,-0.00751495,-0.0094223
113,1,-0.0133896,-0.0144577
113,2,-0.00976562,-0.0157166
113,3,0.000724792,-0.0150299
113,4,0.00995636,-0.0148392
113,5,0.0172043,-0.00968933
113,6,0.0118637,-0.00545502
113,7,0.00400543,-0.00328064
113,8,0.00511169,-0.00293732
113,9,0.00873566,-0.00385284
114,0,0.00297546,-0.00595093
114,1,-0.000915527,-0.00766754
114,2,0.0063324,-0.00896454
114,3,0.018425,-0.00907898
114,4,0.0205612,-0.00740051
114,5,0.0146866,-0.00320435
114,6,0.0119781,0.00171661
114,7,0.0127792,0.00282288
114,8,0.00907898,0.00297546
114,9,0.00343323,0.00473022
115,0,-0.00400543,0.00598907
115,1,-0.00839233,0.00644684
115,2,-0.0128937,0.0056076
115,3,-0.0154495,0.00286102
115,4,-0.0114822,7.62939e-05
115,5,0.00541687,-0.00480652
115,6,0.016098,-0.00789642
115,7,0.0101471,-0.00888824
115,8,0.00270844,-0.00297546
115,9,-0.00164032,0.00701904
116,0,-0.0043869,0.0134659
116,1,-0.00595093,0.0205231
116,2,-0.00587463,0.0266266
116,3,-0.00389099,0.0239182
116,4,-0.00511169,0.0137711
116,5,-0.00881195,0.00797272
116,6,-0.00785828,0.00762939
116,7,-0.00225067,0.0043869
116,8,0.00190735,-0.00392914
116,9,0.00289917,-0.0118256
117,0,7.62939e-05,-0.0174713
117,1,-0.00244141,-0.0141907
117,2,-0.00289917,-0.00717163
117,3,0.00160217,-0.00362396
117,4,0.00812531,-0.00350952
117,5,0.0087738,0.00102997
117,6,0.0063324,0.00530243
117,7,0.00259399,0.00553131
117,8,0.00240326,0.00305176
117,9,0.00137329,0.00419617
118,0,0.0019455,0.00282288
118,1,0.0012207,-0.00286102
118,2,-0.000839233,-0.00904083
118,3,-0.00289917,-0.00682831
118,4,-0.00457764,0.00274658
118,5,-0.0111771,0.0103378
118,6,-0.0223541,0.0167465
118,7,-0.0272369,0.0191116
118,8,-0.0172424,0.022049
118,9,-0.00225067,0.022049
119,0,0.0127792,0.0175858
119,1,0.0218964,0.0120926
119,2,0.0211716,0.00514984
119,3,0.0135422,0.000801086
119,4,0.00480652,0.00331879
119,5,-0.00267029,0.00564575
119,6,-0.00808716,0.00274658
119,7,-0.0113678,-0.00801086
119,8,-0.00648499,-0.0170135
119,9,-0.000267029,-0.0208664
120,0,0.00389099,-0.0231552
120,1,0.00350952,-0.0328445
120,2,0.000114441,-0.0369644
120,3,-0.00434875,-0.0215912
120,4,-0.00701904,-0.00133514
120,5,-0.0121307,0.00988007
120,6,-0.0127411,0.00907898
120,7,-0.00789642,-0.000228882
120,8,-0.00385284,-0.0100327
120,9,0.000534058,-0.0164795
121,0,0.00576019,-0.0133133
121,1,0.0121307,-0.0075531
121,2,0.00995636,-0.00408173
121,3,0.00312805,-0.00694275
121,4,0.00270844,-0.00911713
121,5,0.00652313,-0.00408173
121,6,0.00362396,0.00183105
121,7,-7.62939e-05,0.00415802
121,8,0.00293732,0.000648499
121,9,0.00621796,-0.0019455
122,0,0.00675201,0.000648499
122,1,0.00492096,0.00736237
122,2,-0.00114441,0.0126266
122,3,-0.00038147,0.0109482
122,4,0.0062561,0.00507355
122,5,0.0139236,0.000419617
122,6,0.0171661,0.00102997
122,7,0.0153351,0.0082016
122,8,0.00648499,0.0186157
122,9,-0.00663757,0.02388
123,0,-0.0125504,0.0198746
123,1,-0.00564575,0.0104141
123,2,0.00118256,0.00595093
123,3,0.00114441,0.0082016
123,4,-0.00476837,0.000114441
123,5,-0.0113678,-0.0228119
123,6,-0.0196075,-0.0268936
123,7,-0.0170135,-0.00343323
123,8,-0.00553131,0.0242615
123,9,0.00377655,0.0333023
124,0,0.00709534,0.0252151
124,1,0.0131226,0.0143814
124,2,0.0143051,0.0038147
124,3,0.0101471,-0.0153732
124,4,0.0115967,-0.0299454
124,5,0.0119019,-0.0238419
124,6,0.00556946,-0.0106049
124,7,-0.000724792,-0.00247955
124,8,-0.00892639,0.00427246
124,9,-0.0146866,0.0114059
125,0,-0.0137711,0.0156784
125,1,-0.00282288,0.0113678
125,2,0.00541687,0.00614166
125,3,0.000228882,0.00648499
125,4,-0.01091,0.0087738
125,5,-0.0160217,0.00976562
125,6,-0.0122833,0.00499725
125,7,-0.00663757,-0.00499725
125,8,-0.00663757,-0.0107956
125,9,-0.00816345,-0.0116348
126,0,-0.00679016,-0.00476837
126,1,0.00144958,0.00114441
126,2,0.00835419,-0.0087738
126,3,0.0124741,-0.0259018
126,4,0.0125122,-0.0256348
126,5,0.00724792,-0.00846863
126,6,-0.0030899,0.00278473
126,7,-0.0120163,-0.000610352
126,8,-0.0094986,-0.00663757
126,9,0.0025177,-0.00793457
127,0,0.0107956,-0.0094223
127,1,0.00999451,-0.0136566
127,2,0.0101852,-0.0151443
127,3,0.0104523,-0.0105667
127,4,0.00808716,-0.00442505
127,5,0.00453949,-0.00141144
127,6,0.00167847,3.8147e-05
127,7,-0.00190735,0.0044632
127,8,0.000953674,0.00591278
127,9,0.00469208,0.00217438
128,0,-0.00102997,0.000762939
128,1,-0.00728607,0.00450134
128,2,-0.00747681,0.0107193
128,3,-0.000457764,0.0138855
128,4,0.00465393,0.0169373
128,5,0.00457764,0.0183487
128,6,0.00133514,0.0152588
128,7,0.000419617,0.00312805
128,8,0.000495911,-0.0152969
128,9,-0.0037384,-0.0231171
129,0,-0.0125504,-0.0136948
129,1,-0.0138855,-0.00396729
129,2,-0.00629425,-0.000152588
129,3,0.000801086,0.00312805
129,4,0.00457764,0.00541687
129,5,0.00621796,-0.00125885
129,6,0.00209808,-0.0050354
129,7,0.00144958,0.0056076
129,8,0.00419617,0.0236511
129,9,-0.00286102,0.0299835
130,0,-0.0104904,0.0218582
130,1,-0.00614166,0.00644684
130,2,0.00415802,-0.0101089
130,3,0.0082016,-0.0179672
130,4,0.00686646,-0.020256
130,5,0.00965118,-0.0229263
130,6,0.0160599,-0.0193787
130,7,0.0193787,-0.00301361
130,8,0.0110626,0.00720978
130,9,-0.00404358,0.000534058
131,0,-0.0127029,-0.0117493
131,1,-0.0113678,-0.0228119
131,2,-0.00736237,-0.0219345
131,3,-0.0044632,-0.0094223
131,4,-0.00541687,0.00358582
131,5,-0.00656128,0.00968933
131,6,-0.00579834,0.0158691
131,7,-0.00747681,0.0150299
131,8,-0.00434875,0.0128937
131,9,-0.000495911,0.0117493
132,0,7.62939e-05,0.0140762
132,1,-0.00259399,0.0154495
132,2,-0.00621796,0.00591278
132,3,-0.00419617,-0.00476837
132,4,0.00377655,-0.00358582
132,5,0.00545502,0.00282288
132,6,0.000572205,0.00213623
132,7,-0.0018692,-0.00518799
132,8,0.000419617,-0.00946045
132,9,7.62939e-05,-0.00518799
133,0,-0.00694275,0.00087738
133,1,-0.0123978,0.00396729
133,2,-0.00736237,0.00480652
133,3,-0.00190735,0.0104904
133,4,0.000495911,0.0118256
133,5,0.00190735,0.00221252
133,6,-0.000839233,-0.0129318
133,7,-0.00282288,-0.0140762
133,8,0.000991821,-0.00354767
133,9,0.00514984,0.00419617
134,0,0.00518799,-7.62939e-05
134,1,0.00534058,-0.0127029
134,2,0.00537872,-0.024147
134,3,0.00648499,-0.0205612
134,4,0.00190735,-0.010376
134,5,-0.00602722,-0.00480652
134,6,-0.0100327,0.000228882
134,7,-0.00450134,0.00648499
134,8,0.00110626,0.00839233
134,9,0.000457764,0.00644684
135,0,0.00644684,0.00675201
135,1,0.0117493,0.00644684
135,2,0.0100327,0.0056076
135,3,0.00648499,0.0038147
135,4,-0.00213623,0.00335693
135,5,-0.00556946,0.00259399
135,6,-0.00137329,0.000839233
135,7,0.00167847,-0.00087738
135,8,0.00457764,0.000572205
135,9,0.00988007,0.00427246
136,0,0.00545502,0.00938416
136,1,-0.00209808,0.0133896
136,2,-0.00785828,0.0136566
136,3,-0.00553131,0.00938416
136,4,0.000839233,0.0025177
136,5,0.00492096,-0.0018692
136,6,0.00629425,-0.00640869
136,7,0.00713348,-0.0166321
136,8,0.00751495,-0.0232697
136,9,0.00839233,-0.0175095
137,0,-0.00392914,-0.00431061
137,1,-0.0201035,0.00782013
137,2,-0.0199127,0.0162506
137,3,-0.00606537,0.020752
137,4,0.00457764,0.0181961
137,5,0.00171661,0.0139999
137,6,-0.00659943,0.0118637
137,7,-0.00675201,0.00331879
137,8,-0.00270844,-0.01091
137,9,-0.00354767,-0.0183487
138,0,0.000762939,-0.0154114
138,1,0.0101471,-0.00930786
138,2,0.0112534,-0.00514984
138,3,0.0116348,-0.0025177
138,4,0.0133896,-0.001297
138,5,0.0140381,0.000305176
138,6,0.0119019,-0.00087738
138,7,0.00804901,-0.0127792
138,8,0.00747681,-0.0259781
138,9,0.00717163,-0.0278473
139,0,0.0012207,-0.0128555
139,1,-0.00339508,0.00411987
139,2,-0.00751495,0.0163269
139,3,-0.00686646,0.0190735
139,4,-0.00587463,0.0157166
139,5,-0.0030899,0.00862122
139,6,-0.00282288,-0.00102997
139,7,-0.00839233,-0.00572205
139,8,-0.00911713,-0.00602722
139,9,-0.0111771,-0.00572205
140,0,-0.0125504,-0.00801086
140,1,-0.00846863,-0.0101471
140,2,-0.00293732,-0.00526428
140,3,0.00148773,0.00190735
140,4,0.00652313,0.00270844
140,5,0.0105286,0.000610352
140,6,0.0101471,-0.000953674
140,7,0.00377655,-0.000457764
140,8,-0.00362396,-0.000419617
140,9,-0.00637054,-0.00301361
141,0,-0.00495911,-0.00614166
141,1,-0.00217438,-0.00408173
141,2,-0.000534058,0.00591278
141,3,-0.00400543,0.0162506
141,4,-0.00530243,0.0237274
141,5,-0.00415802,0.0270081
141,6,-0.00549316,0.0217438
141,7,-0.0087738,0.0044632
141,8,-0.00572205,-0.00843048
141,9,-0.0030899,-0.0030899
142,0,-0.00213623,0.000114441
142,1,0.00286102,-0.0201797
142,2,0.0125885,-0.0336075
142,3,0.0148773,-0.0191116
142,4,0.0136948,-0.000152588
142,5,0.0112534,0.00324249
142,6,0.01091,-0.000305176
142,7,0.0108337,-0.00213623
142,8,0.00671387,0.00110626
142,9,-0.00572205,0.00556946
143,0,-0.0203705,0.00995636
143,1,-0.0227356,0.00976562
143,2,-0.0154877,0.00411987
143,3,-0.0138474,0.00324249
143,4,-0.0159073,0.00770569
143,5,-0.00843048,0.00858307
143,6,0.010643,0.00656128
143,7,0.0172424,0.00793457
143,8,0.0127792,0.00583649
143,9,0.0116348,-0.00507355
144,0,0.017395,-0.0133133
144,1,0.0135803,-0.0167084
144,2,0.00213623,-0.00873566
144,3,-0.00659943,0.00957489
144,4,-0.00835419,0.0165939
144,5,-0.00740051,0.0105286
144,6,-0.0037384,0.000534058
144,7,-0.00038147,-0.00591278
144,8,0.000228882,-0.0102615
144,9,-0.000610352,-0.00606537
145,0,-0.00221252,0.00499725
145,1,-0.000152588,0.0107193
145,2,0.00198364,0.00499725
145,3,0.000572205,0.0025177
145,4,-0.00278473,0.00816345
145,5,-0.00495911,0.0116348
145,6,-0.00389099,0.013504
145,7,-0.00507355,0.00904083
145,8,0.00175476,0.00392914
145,9,0.00495911,0.0012207
146,0,0.00385284,0.00133514
146,1,0.00392914,0.00331879
146,2,0.00480652,0.00686646
146,3,0.00812531,0.00396729
146,4,0.0130844,-0.00225067
146,5,0.0141525,-0.00286102
146,6,0.00839233,-0.001297
146,7,0.000953674,-0.00419617
146,8,0.000801086,-0.00976562
146,9,0.00522614,-0.0137711
147,0,0.00331879,-0.0107193
147,1,-0.00133514,-0.00377655
147,2,-0.00175476,0.00278473
147,3,0.000762939,0.00717163
147,4,0.00320435,0.00900269
147,5,0.00274658,0.00656128
147,6,-0.00270844,-0.00343323
147,7,-0.00831604,-0.0247955
147,8,-0.00984192,-0.0431824
147,9,-0.00995636,-0.0422287
148,0,-0.00282288,-0.0289154
148,1,0.00442505,-0.0133896
148,2,0.00087738,-0.00385284
148,3,-0.00488281,-0.000953674
148,4,-0.00679016,-0.00202179
148,5,-0.00583649,0.000915527
148,6,-0.00385284,0.00797272
148,7,-0.00114441,0.0159073
148,8,-0.00144958,0.0180817
148,9,-0.00461578,0.0147629
149,0,-0.00434875,0.00720978
149,1,-0.00198364,-0.00644684
149,2,0.00507355,-0.0165939
149,3,0.0056839,-0.0141525
149,4,-0.00331879,-0.00583649
149,5,-0.0134659,-0.00705719
149,6,-0.0120926,-0.0125122
149,7,-0.00644684,-0.0191879
149,8,0.00404358,-0.0177765
149,9,0.013237,-0.00263214
150,0,0.0161743,0.0147247
150,1,0.0117874,0.0203705
150,2,0.00289917,0.0156021
150,3,-0.00846863,0.0140762
150,4,-0.0082016,0.019455
150,5,0.00301361,0.0210953
150,6,0.0156403,0.0141144
150,7,0.0207138,0.00854492
150,8,0.015564,0.0082016
150,9,0.00442505,0.00907898
151,0,-0.00389099,0.00549316
151,1,-0.00812531,0.00293732
151,2,-0.0082016,0.00648499
151,3,-0.00812531,0.00988007
151,4,-0.00816345,0
151,5,-0.0134277,-0.0181961
151,6,-0.014534,-0.0232697
151,7,-0.00900269,-0.0102615
151,8,0.00453949,0.000991821
151,9,0.0117493,0.00244141
152,0,0.00968933,0.0043869
152,1,-0.0030899,0.00511169
152,2,-0.00740051,0.00141144
152,3,-0.00980377,-0.00415802
152,4,-0.0115204,-0.00602722
152,5,-0.0103378,-0.00476837
152,6,-0.00137329,-0.00484467
152,7,0.00793457,-0.000190735
152,8,0.00919342,0.00869751
152,9,0.00293732,0.0130463
153,0,-0.0043869,0.0104904
153,1,-0.0030899,0.0102615
153,2,-0.001297,0.0191116
153,3,-0.00602722,0.0206757
153,4,-0.00972748,0.00789642
153,5,-0.00431061,-0.00263214
153,6,-0.00164032,0.0019455
153,7,-0.00347137,0.0082016
153,8,-0.00328064,0.00747681
153,9,-0.000228882,-7.62939e-05
154,0,0.00267029,-0.0031662
154,1,0.00335693,-0.00331879
154,2,0.00431061,0.0043869
154,3,0.00671387,0.0141144
154,4,0.00808716,0.0168991
154,5,0.00659943,0.00549316
154,6,0.00720978,-0.0100327
154,7,0.0146103,-0.0188828
154,8,0.0225449,-0.0223541
154,9,0.0220871,-0.0247192
155,0,0.0114059,-0.0240326
155,1,-0.001297,-0.0215149
155,2,-0.00988007,-0.0130463
155,3,-0.00892639,-0.00335693
155,4,0.00202179,-7.62939e-05
155,5,0.00713348,-0.00293732
155,6,0.00740051,-0.0094223
155,7,0.00171661,-0.0156784
155,8,-0.00362396,-0.0196838
155,9,-0.0069046,-0.0149155
156,0,-0.00370026,-0.00453949
156,1,-0.00038147,0.00526428
156,2,0.00247955,0.010376
156,3,0.00595093,0.0115967
156,4,0.0117493,0.00801086
156,5,0.00988007,0.00278473
156,6,0,-0.00221252
156,7,-0.00720978,-0.00267029
156,8,-0.00621796,-0.00312805
156,9,-0.00141144,-0.0082016
157,0,0.000228882,-0.00904083
157,1,-0.00289917,0.00514984
157,2,-0.000534058,0.0242996
157,3,0.00480652,0.0304413
157,4,0.00347137,0.0299072
157,5,0.000610352,0.0259399
157,6,-0.00862122,0.0124359
157,7,-0.017395,0.00118256
157,8,-0.0149155,0.00328064
157,9,-0.00434875,0.00595093
158,0,0.00110626,0.00545502
158,1,3.8147e-05,0.00488281
158,2,0.00167847,0.00602722
158,3,0.00938416,0.00362396
158,4,0.0136948,-0.00270844
158,5,0.0114441,-0.0112534
158,6,0.00743866,-0.00957489
158,7,0.00759125,-0.00164032
158,8,0.00919342,-0.00312805
158,9,0.00530243,-0.0135422
159,0,-0.00087738,-0.0152969
159,1,-0.00450134,0.00152588
159,2,-0.00423431,0.015831
159,3,-0.00415802,0.0152969
159,4,-0.00507355,0.00789642
159,5,-0.00797272,0.00350952
159,6,-0.0109482,0.00106812
159,7,-0.0128555,-0.00995636
159,8,-0.0108719,-0.027771
159,9,-0.00370026,-0.0245285
160,0,0.00152588,-0.00480652
160,1,-0.00156403,0.00591278
160,2,-0.00617981,0.00480652
160,3,-0.00377655,7.62939e-05
160,4,0.00282288,-0.00125885
160,5,0.00530243,-0.00293732
160,6,0.00102997,-0.00640869
160,7,-0.0044632,-0.00133514
160,8,-0.00644684,0.00892639
160,9,0.00038147,0.0107574
161,0,0.00171661,-0.00102997
161,1,-0.00156403,-0.0107956
161,2,-0.00339508,-0.0156784
161,3,-0.00183105,-0.0117874
161,4,-0.00114441,-0.00366211
161,5,-3.8147e-05,-0.00484467
161,6,-0.00236511,-0.0163651
161,7,-0.00736237,-0.0139618
161,8,-0.0117874,0.00244141
161,9,-0.00953674,0.0114822
162,0,-0.00225067,0.0222397
162,1,0.00289917,0.0268555
162,2,0.0088501,0.0239563
162,3,0.0150299,0.0208282
162,4,0.0216293,0.0172806
162,5,0.0226212,0.0163269
162,6,0.0225449,0.0180435
162,7,0.0240326,0.0204086
162,8,0.0160599,0.0138474
162,9,0.00671387,-0.0050354
163,0,-0.00492096,-0.0426865
163,1,-0.00526428,-0.071106
163,2,0.00114441,-0.0475693
163,3,0.00694275,0.00202179
163,4,0.010376,0.0144196
163,5,0.0102997,-0.0103378
163,6,0.00385284,-0.0283813
163,7,-0.00400543,-0.0185776
163,8,-0.00717163,-0.00514984
163,9,-0.00980377,-0.00144958
164,0,-0.0149155,-0.00415802
164,1,-0.0150681,-0.00453949
164,2,-0.00823975,-0.00354767
164,3,-0.000419617,-0.00530243
164,4,0.0012207,-0.00843048
164,5,-0.00396729,-0.00831604
164,6,-0.0075531,-0.00263214
164,7,-0.00205994,0.00682831
164,8,0.00583649,0.0141144
164,9,0.00530243,0.013237
165,0,-0.00125885,0.00823975
165,1,-0.00896454,0.00389099
165,2,-0.00827789,0.00324249
165,3,-0.00587463,0.0019455
165,4,-0.00801086,-0.000610352
165,5,-0.0139618,-0.00286102
165,6,-0.0153351,-0.00469208
165,7,-0.0166321,-0.00347137
165,8,-0.0159073,-0.000915527
165,9,-0.0110626,0.00495911
166,0,-0.00427246,0.0109482
166,1,0.000762939,0.0120544
166,2,0.00392914,0.0131607
166,3,0.00389099,0.0239944
166,4,0.00396729,0.028038
166,5,0.00293732,0.0156784
166,6,0.00255585,0.00205994
166,7,0.00953674,0.000457764
166,8,0.0164413,0.0056076
166,9,0.00846863,0.00621796
167,0,-0.0113678,0.00377655
167,1,-0.020256,0.00667572
167,2,-0.00541687,0.0087738
167,3,0.0138474,0.00335693
167,4,0.018959,-0.0056839
167,5,0.00835419,-0.00228882
167,6,0.0018692,0.00667572
167,7,0.00236511,0.00457764
167,8,0.010376,-0.00656128
167,9,0.0166702,-0.0199127
168,0,0.0118637,-0.0248718
168,1,0.00293732,-0.0213242
168,2,-0.00217438,-0.0122452
168,3,-0.00297546,0.00354767
168,4,-0.0056839,0.0139999
168,5,-0.0115204,0.0137329
168,6,-0.0127029,0.0123596
168,7,-0.00999451,0.0151825
168,8,-0.00530243,0.0180435
168,9,-0.0025177,0.0202942
169,0,-0.00431061,0.015831
169,1,-0.00442505,0.0138855
169,2,-0.00137329,0.0125122
169,3,0.0031662,0.00907898
169,4,0.0069809,0.00209808
169,5,0.00358582,0.0019455
169,6,-0.00511169,-0.00205994
169,7,-0.0102234,-0.0149918
169,8,-0.00225067,-0.0200272
169,9,0.00572205,-0.00804901
170,0,0.0108337,0.00671387
170,1,0.01194,0.0075531
170,2,0.0153351,0.0012207
170,3,0.0177765,-0.0118256
170,4,0.0196838,-0.0251007
170,5,0.0224686,-0.0297546
170,6,0.0214767,-0.0258255
170,7,0.0147247,-0.0182724
170,8,0.000762939,-0.00823975
170,9,-0.00900269,-0.00240326
171,0,-0.00556946,-0.00114441
171,1,0.00286102,0.00297546
171,2,0.00869751,0.00831604
171,3,0.00156403,0.0118256
171,4,-0.0111771,0.0125122
171,5,-0.0177765,0.0109863
171,6,-0.0148773,0.00774384
171,7,-0.00671387,0.000724792
171,8,-0.000915527,-0.00148773
171,9,-0.00205994,0.00240326
172,0,-0.00328064,-0.00465393
172,1,-0.00507355,-0.0136948
172,2,-0.00331879,-0.0139236
172,3,0.00179291,-0.00984192
172,4,0.00377655,-0.00614166
172,5,0.00232697,-0.00720978
172,6,0.00205994,-0.00751495
172,7,0.0043869,-0.00701904
172,8,0.00289917,-0.0133514
172,9,0.000648499,-0.020256
173,0,-0.00385284,-0.0162506
173,1,-0.00663757,-0.00846863
173,2,-0.00362396,-0.00255585
173,3,-0.00293732,0.00675201
173,4,-0.00839233,0.0212097
173,5,-0.00938416,0.0294113
173,6,-0.00946045,0.0287247
173,7,-0.0107574,0.0185394
173,8,-0.00789642,0.0018692
173,9,-0.00495911,-0.00652313
174,0,0.00339508,-0.00564575
174,1,0.00469208,-0.00701904
174,2,-0.00179291,-0.00896454
174,3,-0.010643,-0.00587463
174,4,-0.00610352,0.000495911
174,5,0.00518799,0.00900269
174,6,0.00774384,0.0166321
174,7,0.00492096,0.019722
174,8,-0.0012207,0.00972748
174,9,-0.00804901,-0.000114441
175,0,-0.0122833,0.00205994
175,1,-0.00976562,0.00415802
175,2,-0.00461578,-0.0100327
175,3,-0.000724792,-0.0315475
175,4,0.00526428,-0.0275803
175,5,0.0135422,-0.000267029
175,6,0.0150299,0.0203705
175,7,0.00675201,0.0209427
175,8,-0.00488281,0.0133514
175,9,-0.00602722,0.0183105
176,0,-0.00343323,0.0202179
176,1,-0.00198364,-0.00652313
176,2,-0.00389099,-0.0343704
176,3,-0.00141144,-0.0390625
176,4,0.00598907,-0.0311279
176,5,0.0132751,-0.0219345
176,6,0.0133514,-0.0109482
176,7,0.00793457,0.0018692
176,8,0.0056839,0.0088501
176,9,0.0056839,0.00637054
177,0,0.00293732,0.00133514
177,1,-0.00278473,0.00133514
177,2,-0.00320435,0.00217438
177,3,0.00221252,0.00190735
177,4,0.00782013,0.00183105
177,5,0.0088501,0.00579834
177,6,0.00385284,0.0100327
177,7,-0.00240326,0.0107193
177,8,0.00179291,0.00595093
177,9,0.00648499,0.0025177
178,0,0.00499725,0.00263214
178,1,0.00270844,0.00362396
178,2,0.00114441,0.00411987
178,3,0.00370026,0.00583649
178,4,0.00553131,0.00785828
178,5,0.00530243,0.0144196
178,6,0.00217438,0.0198364
178,7,-0.000190735,0.0188828
178,8,0.00179291,0.0130463
178,9,0.00389099,0.0103378
179,0,0.000801086,0.0117874
179,1,-0.00476837,0.0111008
179,2,-0.00793457,0.00205994
179,3,-0.00419617,-0.00419617
179,4,-0.00087738,-0.00331879
179,5,-0.00225067,-0.00320435
179,6,-0.00350952,-0.00770569
179,7,-0.00415802,-0.00907898
179,8,-0.000991821,-3.8147e-05
179,9,0.000724792,0.00347137
180,0,-0.00183105,-0.00286102
180,1,-0.00293732,-0.00583649
180,2,-0.00572205,0.000610352
180,3,-0.00205994,0.00278473
180,4,0.00488281,-0.00267029
180,5,0.00476837,-0.00514984
180,6,-0.000495911,0.00259399
180,7,-0.00610352,0.00789642
180,8,-0.00774384,-0.00328064
180,9,-0.00537872,-0.0186539
181,0,-0.00808716,-0.0338364
181,1,-0.0101471,-0.0475693
181,2,-0.00331879,-0.0366211
181,3,0.000724792,-0.0105286
181,4,-0.00556946,0.00610352
181,5,-0.00743866,0.0225067
181,6,-0.00652313,0.0359726
181,7,-0.00980377,0.0286865
181,8,-0.0118637,0.0044632
181,9,-0.0112534,-0.019722
182,0,-0.00328064,-0.0278854
182,1,0.0056076,-0.0162888
182,2,0.00598907,-0.000572205
182,3,0.0044632,0.00404358
182,4,0.00549316,0.00545502
182,5,0.00511169,0.00583649
182,6,0.0031662,0.00518799
182,7,0.00602722,0.00465393
182,8,0.0125504,0.00991821
182,9,0.0147629,0.0204086
183,0,0.00541687,0.018959
183,1,-0.00244141,-0.00389099
183,2,-0.000190735,-0.0263977
183,3,0.000724792,-0.0276566
183,4,-0.0044632,-0.00473022
183,5,-0.00389099,0.0125122
183,6,0.00282288,0.00823975
183,7,0.00480652,-0.00270844
183,8,0.00415802,-0.00846863
183,9,0.00282288,-0.00679016
184,0,0.000839233,7.62939e-05
184,1,-0.000534058,0.00499725
184,2,-0.000343323,0.00751495
184,3,0.00228882,0.00778198
184,4,0.00331879,0.00461578
184,5,0.00350952,-0.0019455
184,6,0.00465393,-0.00331879
184,7,0.00453949,-0.00408173
184,8,0.00370026,-0.0075531
184,9,0.00278473,-0.00476837
185,0,-0.001297,-0.000343323
185,1,-0.0037384,0.00038147
185,2,-0.00465393,-0.00484467
185,3,-0.00293732,-0.0156784
185,4,0.000686646,-0.0139236
185,5,0.00461578,0.00370026
185,6,-0.000801086,0.0200653
185,7,-0.00968933,0.0226593
185,8,-0.00961304,0.00804901
185,9,0.00171661,0.00110626
186,0,0.00858307,0.0111008
186,1,0.00938416,0.0226974
186,2,0.0030899,0.0226593
186,3,0.00114441,0.0152588
186,4,0.00644684,0.0113297
186,5,0.0117874,0.0127792
186,6,0.0157166,0.0149536
186,7,0.0133133,0.0139236
186,8,0.00873566,0.00370026
186,9,0.00667572,-0.019989
187,0,0.0102234,-0.0387955
187,1,0.00843048,-0.0299454
187,2,-0.00270844,-0.0102234
187,3,-0.012207,0.0030899
187,4,-0.0111389,0.00572205
187,5,-0.00579834,0.00427246
187,6,-0.00801086,0.00743866
187,7,-0.0126266,0.0107193
187,8,-0.0113297,0.0125122
187,9,-0.00549316,0.0109482
188,0,-0.00469208,0.00556946
188,1,-0.00747681,-0.00347137
188,2,-0.00946045,-0.0131226
188,3,-0.0101852,-0.0193787
188,4,-0.00564575,-0.0161743
188,5,-0.00190735,-0.00827789
188,6,0.00228882,-0.0075531
188,7,0.0043869,-0.0104523
188,8,0.0069046,-0.00846863
188,9,0.00804901,-0.00484467
189,0,0.00621796,-0.00431061
189,1,0.00259399,-0.0104904
189,2,-0.00312805,-0.017395
189,3,-0.00991821,-0.0157547
189,4,-0.0130844,-0.00812531
189,5,-0.0114441,-0.00125885
189,6,-0.00843048,0.0025177
189,7,-0.00354767,0.00434875
189,8,0.000801086,0.00476837
189,9,0.00274658,0.00484467
190,0,0.000953674,0.00587463
190,1,-0.00137329,0.00492096
190,2,-0.0038147,0.00507355
190,3,-0.00236511,0.00854492
190,4,0.00419617,0.00907898
190,5,0.00640869,0.00999451
190,6,0.00648499,0.0127029
190,7,0.00495911,0.0141907
190,8,0.00839233,0.0110245
190,9,0.00976562,0.00495911
191,0,0.00164032,0.00442505
191,1,-0.0116348,0.00957489
191,2,-0.0146103,0.00797272
191,3,-0.00610352,-0.00221252
191,4,-0.00457764,0.00183105
191,5,-0.0106049,0.01091
191,6,-0.0141144,0.00865936
191,7,-0.0144958,0.0037384
191,8,-0.00392914,0.00362396
191,9,0.0100708,0.00495911
192,0,0.0190353,-0.00377655
192,1,0.0209427,-0.0131989
192,2,0.0158691,-0.00686646
192,3,0.00621796,-0.0082016
192,4,-0.00267029,-0.026741
192,5,-0.00549316,-0.0389862
192,6,-0.00301361,-0.0392151
192,7,0.000839233,-0.0335312
192,8,0.00389099,-0.0223923
192,9,0.00648499,-0.00514984
193,0,0.0062561,0.00469208
193,1,0.00354767,0.00492096
193,2,-3.8147e-05,0.00694275
193,3,-0.00419617,0.00770569
193,4,0.00038147,0.00537872
193,5,0.00450134,0.00102997
193,6,0.00102997,-0.000534058
193,7,-0.0025177,0.00282288
193,8,-0.000534058,0.00629425
193,9,0.00324249,0.00495911
194,0,0.0101089,0.00263214
194,1,0.00892639,-0.000686646
194,2,0.00370026,0.001297
194,3,0,-0.00160217
194,4,-0.00366211,-0.0109863
194,5,-0.0044632,-0.0209808
194,6,-0.00419617,-0.0159454
194,7,0.000190735,0.00434875
194,8,0.00537872,0.0231934
194,9,0.00835419,0.0317001
195,0,0.00762939,0.0344086
195,1,0.00465393,0.0318527
195,2,-0.00137329,0.0191116
195,3,-0.00804901,0.00476837
195,4,-0.00907898,-0.00705719
195,5,-0.00511169,-0.00946045
195,6,-0.00247955,-0.00679016
195,7,-0.00297546,-0.00778198
195,8,-0.00354767,-0.00743866
195,9,-0.0056076,0.00228882
196,0,-0.00556946,0.0143051
196,1,-0.0062561,0.0205612
196,2,-0.00782013,0.019722
196,3,-0.00850677,0.0136566
196,4,-0.00965118,0.00648499
196,5,-0.00648499,-0.000801086
196,6,-0.00541687,-0.00854492
196,7,-0.00202179,-0.00850677
196,8,0.00137329,-0.000190735
196,9,0.00164032,0.0037384
197,0,7.62939e-05,-0.000724792
197,1,0.000305176,-0.00499725
197,2,0.00164032,-0.000610352
197,3,0.0012207,0.0111008
197,4,-0.00278473,0.0157547
197,5,-0.000190735,0.0122452
197,6,0.00602722,0.0101471
197,7,0.00980377,0.013504
197,8,0.0122833,0.0170898
197,9,0.0147247,0.00488281
198,0,0.0162506,-0.0236893
198,1,0.00873566,-0.0388336
198,2,-0.000915527,-0.0283432
198,3,-0.00663757,-0.0163651
198,4,-0.00812531,-0.019722
198,5,-0.00888824,-0.0255585
198,6,-0.00621796,-0.0118637
198,7,-7.62939e-05,0.0127792
198,8,0.010643,0.022583
198,9,0.0233841,0.012207
199,0,0.0226593,0.000267029
199,1,0.00743866,-0.00209808
199,2,-0.0111771,0.00179291
199,3,-0.0199509,0.000114441
199,4,-0.0191879,-0.00362396
199,5,-0.00995636,-0.00896454
199,6,-0.00171661,-0.00934601
199,7,0.00160217,0.00404358
199,8,0.00137329,0.0101089
199,9,-0.00335693,0.000648499
200,0,-0.00694275,0.00415802
200,1,-0.00846863,0.00850677
200,2,-0.00812531,-0.0206375
200,3,-0.0043869,-0.0514221
200,4,0.00125885,-0.0375748
200,5,-0.00087738,-0.0107574
200,6,-0.00553131,-0.00385284
200,7,-0.00831604,0.00247955
200,8,-0.00823975,0.0121307
200,9,-0.00427246,0.00911713
201,0,-0.00156403,-0.00205994
201,1,-7.62939e-05,-0.00850677
201,2,0.00572205,-0.00667572
201,3,0.0179291,-0.00545502
201,4,0.0260925,-0.00419617
201,5,0.0254059,7.62939e-05
201,6,0.0135422,0.00991821
201,7,0.00213623,0.0169754
201,8,-3.8147e-05,0.0140762
201,9,0.000419617,0.00831604
202,0,-0.00152588,0.00255585
202,1,0.000572205,-0.00324249
202,2,0.00377655,-0.00579834
202,3,0.00686646,-0.00358582
202,4,0.00827789,0.00289917
202,5,0.00869751,0.011673
202,6,0.010643,0.0202179
202,7,0.00999451,0.0239182
202,8,0.00610352,0.0219727
202,9,0.00190735,0.0170517
203,0,-0.00411987,0.0138474
203,1,-0.00614166,0.0087738
203,2,-0.00583649,-0.00110626
203,3,-0.00411987,-0.00946045
203,4,-0.00389099,-0.00839233
203,5,-0.00259399,-0.00526428
203,6,-0.00518799,-0.00495911
203,7,-0.00728607,-0.00339508
203,8,-0.00663757,0.00274658
203,9,-0.0050354,0.00995636
204,0,-0.00659943,0.0104904
204,1,-0.00774384,0.00400543
204,2,-0.00976562,-0.00217438
204,3,-0.00907898,0.00267029
204,4,-0.00591278,0.00999451
204,5,-0.00183105,0.00350952
204,6,0.000228882,-0.00972748
204,7,-0.00225067,-0.0205994
204,8,-0.00305176,-0.0183868
204,9,-0.00160217,-0.00423431
205,0,0.00267029,-0.00526428
205,1,-0.00125885,-0.0245667
205,2,-0.0131989,-0.0273514
205,3,-0.0197601,-0.00484467
205,4,-0.00930786,0.025444
205,5,0.0117111,0.0339508
205,6,0.0216675,0.0199127
205,7,0.0131607,0.0156403
205,8,0.00938416,0.0278854
205,9,0.0127792,0.0297928
206,0,0.00762939,0.0218582
206,1,-0.00118256,0.019455
206,2,-0.00209808,0.00598907
206,3,0.00408173,-0.0297928
206,4,0.0069046,-0.0335312
206,5,0.00423431,0.000915527
206,6,0.00324249,0.0227737
206,7,0.00968933,0.0198364
206,8,0.0128937,0.00812531
206,9,0.00900269,0.000724792
207,0,0.00156403,7.62939e-05
207,1,-0.00473022,-0.00534058
207,2,-0.00274658,-0.0172043
207,3,0.00400543,-0.0261307
207,4,0.0069046,-0.0252533
207,5,0.00507355,-0.0209427
207,6,-0.000839233,-0.0180817
207,7,-0.00514984,-0.0196838
207,8,-0.00541687,-0.0241852
207,9,-0.00450134,-0.0269699
208,0,-0.00965118,-0.018692
208,1,-0.0178909,-0.00720978
208,2,-0.0188446,-0.00205994
208,3,-0.0137711,-0.00328064
208,4,-0.00774384,-0.00659943
208,5,-0.00576019,-0.0088501
208,6,-0.00442505,-0.0056839
208,7,-0.00354767,-0.00164032
208,8,-0.00152588,0.001297
208,9,-0.000190735,0.000228882
209,0,-0.00572205,0.000190735
209,1,-0.00926971,0.00232697
209,2,-0.00701904,0.00751495
209,3,-0.000190735,0.0114822
209,4,0.00518799,0.0131607
209,5,0.00350952,0.0130463
209,6,0.000610352,0.0131607
209,7,-0.00823975,0.0123978
209,8,-0.00473022,0.0120163
209,9,0.000534058,0.0114059
210,0,0.00347137,0.0109863
210,1,0.00205994,0.0110626
210,2,0.00255585,0.0127792
210,3,0.00514984,0.0107193
210,4,0.0105286,0.00324249
210,5,0.0127029,-0.0109482
210,6,0.00659943,-0.0238419
210,7,-0.00656128,-0.0221252
210,8,-0.0156403,-0.0111008
210,9,-0.0119019,-0.00583649
211,0,-0.00320435,-0.0128937
211,1,0.00385284,-0.0253296
211,2,0.00869751,-0.027771
211,3,0.00968933,-0.00862122
211,4,0.0109482,0.0109482
211,5,0.0164413,0.0140381
211,6,0.0175858,0.021553
211,7,0.0154877,0.0486755
211,8,0.0156021,0.0722122
211,9,0.0152969,0.0661469
212,0,0.00915527,0.0357819
212,1,0.00415802,0.013504
212,2,-0.000915527,-0.00415802
212,3,-0.00198364,-0.0424194
212,4,-0.000610352,-0.0764847
212,5,-3.8147e-05,-0.0662613
212,6,-0.00259399,-0.0240707
212,7,-0.00602722,0.00457764
212,8,-0.00747681,0.00640869
212,9,-0.00713348,0.00881195
213,0,-0.00324249,0.0173187
213,1,0,0.0159454
213,2,0.00259399,0.00133514
213,3,0.00358582,-0.0126266
213,4,0.00232697,-0.0094986
213,5,0.00213623,0.00434875
213,6,0.00205994,0.0156021
213,7,0.00610352,0.0118256
213,8,0.0147247,0.00450134
213,9,0.00984192,-0.00305176
214,0,-0.00267029,-0.0131226
214,1,-0.010643,-0.0141907
214,2,-0.0156403,-0.0120544
214,3,-0.0197601,-0.0117874
214,4,-0.0163651,-0.0140381
214,5,-0.00553131,-0.00854492
214,6,0.00389099,0.00804901
214,7,0.0087738,0.0210953
214,8,0.00858307,0.0228119
214,9,0.00553131,0.0197983
215,0,-0.00343323,0.0185013
215,1,-0.00762939,0.0127029
215,2,-0.00614166,0.00358582
215,3,-0.00427246,-0.00411987
215,4,-0.0056839,-0.00934601
215,5,-0.00720978,-0.0113678
215,6,-0.0111389,-0.0111389
215,7,-0.0101471,-0.0120544
215,8,-0.00686646,-0.0113297
215,9,-0.00728607,-0.00827789
216,0,-0.0037384,-0.00141144
216,1,0.0062561,0.00823975
216,2,0.0122452,0.0127792
216,3,0.0121307,0.00854492
216,4,0.00511169,0.00591278
216,5,-0.00659943,-0.00183105
216,6,-0.01091,-0.0153351
216,7,-0.0119781,-0.0111008
216,8,-0.0204468,0.0193787
216,9,-0.0163651,0.0436401
217,0,0.00427246,0.0315094
217,1,0.0211334,0.00179291
217,2,0.0253296,-0.0111008
217,3,0.0196457,-0.0185013
217,4,0.0106049,-0.031395
217,5,0.00221252,-0.0306702
217,6,-0.00614166,-0.0218582
217,7,-0.00804901,-0.0235748
217,8,-0.00335693,-0.0274658
217,9,0.00339508,-0.0227737
218,0,0.00679016,-0.00614166
218,1,0.00953674,0.00980377
218,2,0.00835419,0.0129318
218,3,0.000228882,0.0120544
218,4,-0.00545502,0.0148773
218,5,-0.00343323,0.0233459
218,6,0.00156403,0.0296402
218,7,0.00793457,0.0222778
218,8,0.00957489,0.00087738
218,9,0.00419617,-0.0204086
219,0,-0.00522614,-0.0286484
219,1,-0.00736237,-0.0206375
219,2,-0.00331879,-0.0102234
219,3,-0.00244141,0.0012207
219,4,-0.00595093,0.0102234
219,5,-0.00843048,0.00888824
219,6,-0.00556946,-0.000267029
219,7,-0.00366211,-0.00862122
219,8,-0.00473022,-0.0115204
219,9,-0.0063324,-0.00511169
220,0,-0.00617981,0.00869751
220,1,-0.00549316,0.0171661
220,2,-0.00434875,0.0225067
220,3,-0.00339508,0.0284195
220,4,-0.00106812,0.0286102
220,5,0.00415802,0.022583
220,6,0.0062561,0.0180054
220,7,0.00507355,0.0147247
220,8,0.0102234,-0.00133514
220,9,0.014267,-0.0207901
221,0,0.00354767,-0.0261307
221,1,-0.0111008,-0.0255966
221,2,-0.014267,-0.0277328
221,3,-0.00602722,-0.0168991
221,4,-0.0019455,-0.00205994
221,5,-0.00125885,0.00324249
221,6,-0.000534058,0.000572205
221,7,-0.00286102,-0.00507355
221,8,0.00110626,-0.00480652
221,9,0.00648499,-0.00274658
222,0,0.00881195,-0.00419617
222,1,0.0102234,-0.00469208
222,2,0.0138092,0.00484467
222,3,0.0147247,0.0174713
222,4,0.0138474,0.0295258
222,5,0.0177002,0.0374985
222,6,0.0157928,0.0320816
222,7,0.00370026,-0.000610352
222,8,-0.00774384,-0.0398636
222,9,-0.013504,-0.057869
223,0,-0.0136948,-0.0530243
223,1,-0.00930786,-0.0318527
223,2,-0.00663757,0.00637054
223,3,-0.00225067,0.0345612
223,4,0.00461578,0.0193024
223,5,0.00789642,-0.00339508
223,6,0.00278473,-0.0031662
223,7,-0.00492096,0.00118256
223,8,-0.00816345,-0.00232697
223,9,-0.00347137,-0.00751495
224,0,0.00305176,-0.00999451
224,1,0.00637054,-0.013504
224,2,0.00499725,-0.0327301
224,3,-0.00087738,-0.0554276
224,4,-0.00534058,-0.0498581
224,5,-0.00408173,-0.0190353
224,6,7.62939e-05,0.000343323
224,7,0.00221252,0.00881195
224,8,0.00312805,0.0180435
224,9,0.00263214,0.0219727
225,0,0.00232697,0.0280762
225,1,-0.00152588,0.0377655
225,2,-0.00675201,0.0379944
225,3,-0.0094986,0.0233078
225,4,-0.0101089,0.0191498
225,5,-0.00720978,0.0362396
225,6,-0.00450134,0.0481033
225,7,-0.00965118,0.0340271
225,8,-0.00953674,0.00656128
225,9,-0.00514984,-0.0138474
226,0,-0.000915527,-0.0174332
226,1,0.00606537,-0.0168228
226,2,0.0101471,-0.0181198
226,3,0.00858307,-0.00846863
226,4,0.00602722,0.0154877
226,5,0.00400543,0.0320435
226,6,0.00198364,0.0241852
226,7,0.000839233,0.00648499
226,8,0.00255585,-3.8147e-05
226,9,0.00415802,-0.00411987
227,0,0.00282288,-0.0197601
227,1,0.000457764,-0.0322723
227,2,0.00286102,-0.0203705
227,3,0.00648499,0.00705719
227,4,0.0082016,0.021019
227,5,0.00656128,0.0166702
227,6,-0.00362396,0.00938416
227,7,-0.0146866,0.0106812
227,8,-0.00865936,0.0161362
227,9,0.00801086,0.0106049
228,0,0.00656128,-0.00858307
228,1,-0.00274658,-0.0280762
228,2,-0.00896454,-0.0275803
228,3,-0.00713348,-0.0140762
228,4,0.00102997,-0.010376
228,5,0.00228882,-0.0115585
228,6,-0.00659943,7.62939e-05
228,7,-0.0168228,0.0135803
228,8,-0.0170517,0.0128555
228,9,-0.00930786,0.00511169
229,0,-0.00354767,0.00480652
229,1,-0.00175476,0.0129318
229,2,-0.00247955,0.0135422
229,3,-0.0043869,0.00270844
229,4,-0.00213623,-0.0151825
229,5,0.00267029,-0.0279999
229,6,0.00999451,-0.0263596
229,7,0.0114059,-0.012207
229,8,0.01194,0.00587463
229,9,0.0115204,0.0305939
230,0,0.00244141,0.0492859
230,1,-0.0025177,0.0403214
230,2,0.0018692,0.00488281
230,3,0.00347137,-0.0237656
230,4,0.00492096,-0.0217819
230,5,0.0123215,0.00312805
230,6,0.0205231,0.0203323
230,7,0.0201416,0.0206757
230,8,0.0157166,0.00717163
230,9,0.0123215,-0.0195694
231,0,0.00843048,-0.0356293
231,1,0.00110626,-0.03582
231,2,-0.00137329,-0.0442505
231,3,0.00183105,-0.0556946
231,4,0.00556946,-0.0487518
231,5,0.00724792,-0.0344849
231,6,0.00694275,-0.0224304
231,7,0.00507355,-0.0128937
231,8,0.00610352,0.00228882
231,9,0.00492096,0.0135803
232,0,-0.001297,0.0126648
232,1,-0.00785828,0.00606537
232,2,-0.0157547,0.00324249
232,3,-0.0157928,0.00587463
232,4,-0.00797272,0.00602722
232,5,-0.00213623,0.00411987
232,6,-0.00152588,0.00228882
232,7,-0.0025177,-0.0030899
232,8,-0.00190735,-0.0119781
232,9,-0.0037384,-0.0106049
233,0,-0.00778198,0.00320435
233,1,-0.0101852,0.0205612
233,2,-0.0102615,0.0301743
233,3,-0.00762939,0.0239563
233,4,-0.00553131,0.00865936
233,5,-0.00473022,0.000648499
233,6,-0.00610352,0.00160217
233,7,-0.00904083,0.00377655
233,8,-0.00972748,0.00595093
233,9,-0.00999451,0.0134659
234,0,-0.01297,0.0239944
234,1,-0.0149536,0.026741
234,2,-0.0069046,0.0167084
234,3,0.00255585,0.0056839
234,4,0.00751495,0.00335693
234,5,0.00720978,-0.0108719
234,6,0.000991821,-0.0289154
234,7,-0.0063324,-0.0226212
234,8,-0.00774384,0.00465393
234,9,-0.00473022,0.0265884
235,0,-0.00541687,0.0284576
235,1,-0.00736237,0.0177765
235,2,-0.00160217,-0.00534058
235,3,0.00511169,-0.0261307
235,4,0.0088501,-0.0315475
235,5,0.0100708,-0.0305557
235,6,-0.00038147,-0.0303268
235,7,-0.0127411,-0.00919342
235,8,-0.0171661,0.0248337
235,9,-0.00637054,0.0343704
236,0,0.00766754,0.0206375
236,1,0.0112152,0.0125504
236,2,0.00518799,0.0115585
236,3,-0.000686646,0.00232697
236,4,0.000915527,-0.0124359
236,5,0.00339508,-0.019722
236,6,0.00652313,-0.01194
236,7,0.00881195,0.0162125
236,8,0.0062561,0.0495529
236,9,0.00110626,0.0605392
237,0,-0.0019455,0.0456619
237,1,0.000534058,0.0198746
237,2,0.00534058,-0.0120926
237,3,0.00804901,-0.032959
237,4,0.00526428,-0.0227737
237,5,0.00377655,-0.00297546
237,6,0.00301361,0.000572205
237,7,-0.00198364,-0.0104141
237,8,-0.000228882,-0.019722
237,9,0.00404358,-0.0255203
238,0,0.00812531,-0.0264359
238,1,0.00850677,-0.0250626
238,2,0.00553131,-0.0182724
238,3,0.0044632,-0.00778198
238,4,0.0056839,7.62939e-05
238,5,0.00751495,0.00434875
238,6,0.00785828,0.00476837
238,7,0.00831604,0.00358582
238,8,0.00789642,0.00389099
238,9,0.0019455,0.0012207
239,0,-0.00713348,0.00423431
239,1,-0.01297,0.0141525
239,2,-0.0141907,0.0136185
239,3,-0.0133896,-0.000419617
239,4,-0.0094986,-0.0245285
239,5,-0.00263214,-0.0474548
239,6,0.000953674,-0.0548935
239,7,0.00267029,-0.0362396
239,8,0.00614166,0.00411987
239,9,0.00278473,0.034523
240,0,-0.00457764,0.0336838
240,1,-0.00541687,0.0025177
240,2,-0.00320435,-0.0255966
240,3,-0.00221252,-0.0323868
240,4,-0.000419617,-0.0147247
240,5,0.00312805,0.0124359
240,6,0.0069809,0.0193024
240,7,0.00553131,0.00881195
240,8,0.001297,3.8147e-05
240,9,-0.000991821,-0.0138855
241,0,-0.00114441,-0.0383377
241,1,0.00133514,-0.0588608
241,2,0.00968933,-0.0449753
241,3,0.0152969,0.00648499
241,4,0.0111771,0.0579834
241,5,0.00556946,0.0743866
241,6,-0.00347137,0.058136
241,7,-0.0151825,0.0327301
241,8,-0.018959,0.0135803
241,9,-0.0118256,3.8147e-05
242,0,-0.000305176,-0.00476837
242,1,0.00858307,0.000953674
242,2,0.0111008,0.0136185
242,3,0.0062561,0.0109482
242,4,0.00488281,-0.00514984
242,5,0.00930786,-0.0156403
242,6,0.0121307,-0.00938416
242,7,0.0120163,0.00324249
242,8,0.00965118,0.010643
242,9,0.00587463,0.00972748
243,0,-0.00144958,0.00350952
243,1,-0.00598907,-0.000762939
243,2,-0.00782013,0.000457764
243,3,-0.0088501,0.00564575
243,4,-0.00751495,0.00675201
243,5,-0.00354767,0.00713348
243,6,-0.00209808,0.0146103
243,7,-0.00217438,0.0252151
243,8,-0.00564575,0.0360489
243,9,-0.0088501,0.0426865
244,0,-0.00965118,0.0521469
244,1,-0.00537872,0.0574112
244,2,-0.00148773,0.0325394
244,3,-0.000495911,-0.0181198
244,4,-0.00198364,-0.0492859
244,5,-0.00457764,-0.0665283
244,6,-0.00682831,-0.0872421
244,7,-0.00537872,-0.0753403
244,8,0.00156403,-0.0371933
244,9,0.0069046,-0.0112534
245,0,0.00347137,-0.0127029
245,1,-0.00202179,-0.0226593
245,2,-0.00106812,-0.0191498
245,3,0.00389099,0.00671387
245,4,0.00423431,0.0224686
245,5,0.00209808,0.00827789
245,6,0.00152588,-0.00644684
245,7,-0.00164032,0.00160217
245,8,0.00270844,0.0138855
245,9,0.0102234,0.0124359
246,0,0.0162506,0.000343323
246,1,0.0166321,-0.00907898
246,2,0.0165176,-0.000495911
246,3,0.0185013,0.0166702
246,4,0.0136185,0.022049
246,5,-0.00370026,0.018959
246,6,-0.0146103,0.0125122
246,7,-0.00591278,0.00236511
246,8,0.00480652,-0.0187683
246,9,0.0050354,-0.0304031
247,0,-0.00240326,-0.00732422
247,1,-0.00740051,0.022049
247,2,-0.00572205,0.030098
247,3,-0.00831604,0.020752
247,4,-0.0102997,0.00038147
247,5,-0.00423431,-0.01194
247,6,0.00102997,-0.00400543
247,7,-0.00247955,0.0115585
247,8,-0.00419617,0.0190353
247,9,-0.000724792,0.0138474
248,0,0.00118256,0.00328064
248,1,0.00778198,0.000152588
248,2,0.0112152,-0.00118256
248,3,0.00553131,-0.0172806
248,4,-0.00514984,-0.0327682
248,5,-0.00984192,-0.0288773
248,6,-0.00709534,-0.00736237
248,7,-0.00102997,0.0166702
248,8,0.00259399,0.0217056
248,9,0.00312805,0.0125885
249,0,-0.000419617,0.00595093
249,1,-0.0037384,0.00114441
249,2,-0.00263214,-0.00331879
249,3,0.000228882,-0.00297546
249,4,0.000457764,0.0118637
249,5,-0.000839233,0.0250244
249,6,-0.00396729,0.0220871
249,7,-0.00778198,0.00377655
249,8,-0.00930786,-0.0147247
249,9,-0.00713348,-0.0133133
250,0,-0.00537872,0.000190735
250,1,-0.00350952,0.00137329
250,2,-0.000495911,-0.0138474
250,3,0.00511169,-0.0271988
250,4,0.0131989,-0.0287628
250,5,0.0198746,-0.0126266
250,6,0.020256,0.00469208
250,7,0.0174713,0.0056076
250,8,0.0125122,0.00789642
250,9,0.00370026,0.0264359
251,0,-0.0043869,0.0469589
251,1,-0.00907898,0.0455093
251,2,-0.00354767,0.022583
251,3,0.00305176,0.00930786
251,4,-0.00335693,-0.00297546
251,5,-0.0109863,-0.0272751
251,6,-0.00740051,-0.0585556
251,7,-0.00171661,-0.0724411
251,8,0.00228882,-0.0474548
251,9,-0.00461578,-0.0121689
252,0,-0.0154114,0.00385284
252,1,-0.0177765,0.00671387
252,2,-0.00720978,0.0175858
252,3,0.00995636,0.0337982
252,4,0.0215912,0.0180435
252,5,0.0218582,-0.0154495
252,6,0.0125122,-0.0215149
252,7,0.000724792,-0.00705719
252,8,-0.00862122,-0.00686646
252,9,-0.0137711,-0.0192261
253,0,-0.0101852,-0.018692
253,1,-0.0056839,-0.0106812
253,2,-0.00835419,-0.00694275
253,3,-0.0118256,-0.00686646
253,4,-0.00846863,-0.00782013
253,5,-0.00415802,-0.00133514
253,6,-0.00553131,0.0152969
253,7,-0.0103378,0.0290298
253,8,-0.00705719,0.0253677
253,9,0.000572205,0.0131607
254,0,0.00740051,0.00236511
254,1,0.0101089,-0.00133514
254,2,0.00846863,0.00831604
254,3,0.00850677,0.0228882
254,4,0.00801086,0.0271988
254,5,0.0107574,0.0214767
254,6,0.0106812,0.00255585
254,7,0.00720978,-0.022049
254,8,0.00595093,-0.0273895
254,9,0.00595093,-0.0115585
255,0,0.000572205,-0.00450134
255,1,-0.0062561,-0.00965118
255,2,-0.00762939,-0.00816345
255,3,-0.00579834,0.00583649
255,4,-0.00255585,0.0217819
255,5,-0.000419617,0.0315094
255,6,-0.000190735,0.0434494
255,7,-0.0050354,0.0476074
255,8,-0.00980377,0.0313187
255,9,-0.00774384,0.0107574
256,0,-0.0030899,-0.0115204
256,1,0.000343323,-0.0406265
256,2,-0.00114441,-0.0458908
256,3,0.000457764,-0.0168228
256,4,-0.000801086,0.014801
256,5,0.000724792,0.021286
256,6,0.00751495,0.00495911
256,7,0.0128555,-0.00797272
256,8,0.0103378,-0.00164032
256,9,0.00518799,0.00522614
257,0,0.00324249,-0.00835419
257,1,0.00579834,-0.0294495
257,2,0.0069046,-0.0349808
257,3,0.00717163,-0.0168228
257,4,0.00473022,0.00209808
257,5,-0.000915527,0.00255585
257,6,-0.00137329,-0.00984192
257,7,0.00328064,-0.0170135
257,8,0.0107193,-0.00907898
257,9,0.00782013,0.00881195
258,0,-0.00156403,0.0279236
258,1,-0.0056076,0.0362778
258,2,-0.00679016,0.0265884
258,3,-0.00236511,0.00263214
258,4,0.00495911,-0.0230789
258,5,0.0056076,-0.0323105
258,6,-0.000915527,-0.0233078
258,7,-0.000343323,-0.0122452
258,8,0.0101471,-0.00339508
258,9,0.0162506,0.0012207
259,0,0.00656128,-0.0030899
259,1,-0.0133896,-0.0121307
259,2,-0.022049,-0.0225067
259,3,-0.0159454,-0.0301743
259,4,-0.00789642,-0.0349045
259,5,-0.00511169,-0.0283813
259,6,-0.00694275,0.00476837
259,7,-0.00411987,0.042572
259,8,0.00217438,0.0567627
259,9,0.00289917,0.0379562
260,0,-0.00209808,0.00999451
260,1,-0.00400543,0.00110626
260,2,-0.0012207,-0.00591278
260,3,0.00148773,-0.0204468
260,4,0.000495911,-0.0215912
260,5,-0.00137329,-0.00717163
260,6,-0.00217438,-0.00225067
260,7,-0.00148773,-0.000190735
260,8,-0.00358582,0.0130844
260,9,-0.00831604,0.0261307
261,0,-0.0125504,0.0314331
261,1,-0.0129318,0.0240707
261,2,-0.01194,0.00202179
261,3,-0.00991821,-0.0212479
261,4,-0.00644684,-0.0305176
261,5,0.00339508,-0.0169373
261,6,0.0121307,0.0062561
261,7,0.0135422,0.0185394
261,8,0.0162125,0.0110245
261,9,0.0165939,-0.00965118
262,0,0.0112915,-0.0293732
262,1,0.0107574,-0.0415421
262,2,0.0134659,-0.0482178
262,3,0.014267,-0.0302887
262,4,0.00999451,0.00797272
262,5,0.0107956,0.0390625
262,6,0.0154495,0.0440216
262,7,0.0142288,0.0368118
262,8,0.0094223,0.033493
262,9,0.00816345,0.0332642
263,0,0.00148773,0.0367355
263,1,-0.0127792,0.0377274
263,2,-0.0228882,0.026207
263,3,-0.0209045,0.0146484
263,4,-0.0113678,0.00999451
263,5,-0.00419617,0.00511169
263,6,-0.00667572,-0.00434875
263,7,-0.0101852,-0.0094223
263,8,-0.00934601,-0.00991821
263,9,-0.00259399,-0.0105286
264,0,0.000915527,-0.016861
264,1,0.00167847,-0.0189972
264,2,-0.001297,-0.0141907
264,3,-0.00461578,-0.00816345
264,4,-0.00724792,-0.00751495
264,5,-0.00705719,0.00282288
264,6,-0.0025177,0.024147
264,7,0.00213623,0.0334549
264,8,0.00469208,0.0246048
264,9,0.00236511,0.0094223
265,0,-0.00358582,-0.00106812
265,1,-0.00701904,-0.0107956
265,2,-0.00408173,-0.014267
265,3,-0.000953674,0.00644684
265,4,0.00156403,0.0395966
265,5,0.000114441,0.0447464
265,6,0.00301361,0.0153351
265,7,0.00370026,-0.0100708
265,8,0.00137329,-0.020256
265,9,0.00282288,-0.0304413
266,0,0.0037384,-0.0452805
266,1,0.00102997,-0.0561142
266,2,-0.000915527,-0.0507355
266,3,0.00141144,-0.0311279
266,4,0.0107193,0.00148773
266,5,0.0159073,0.0304413
266,6,0.0131226,0.0384521
266,7,0.00450134,0.0301361
266,8,-0.00175476,0.0165558
266,9,0.000648499,0.00404358
267,0,0.00415802,-0.0130081
267,1,0.00663757,-0.0210953
267,2,0.00846863,-0.0322342
267,3,0.00801086,-0.046463
267,4,0.00598907,-0.0332642
267,5,0.00240326,0.0031662
267,6,0.000114441,0.0205231
267,7,-0.00465393,0.0119781
267,8,-0.00606537,0.00167847
267,9,-0.0050354,-0.00984192
268,0,-0.00362396,-0.0265884
268,1,-7.62939e-05,-0.0361252
268,2,0.0018692,-0.0387192
268,3,-0.00301361,-0.0322342
268,4,-0.00579834,-0.0133133
268,5,-0.00354767,0.0062561
268,6,0.00118256,0.0209808
268,7,-0.00217438,0.0370407
268,8,-0.0056076,0.03479
268,9,-0.00377655,0.0100708
269,0,-0.00282288,-0.011673
269,1,-0.0038147,-0.0263596
269,2,-0.00488281,-0.0284958
269,3,-0.00328064,-0.0133133
269,4,-0.0030899,-0.000991821
269,5,-0.00553131,0.00343323
269,6,-0.0100708,0.00286102
269,7,-0.0139236,0.00354767
269,8,-0.0102997,0.00854492
269,9,-0.0094986,0.0125885
270,0,-0.00965118,0.0162888
270,1,-0.0110245,0.0231934
270,2,-0.0102997,0.0328445
270,3,-0.00801086,0.0403976
270,4,-0.00305176,0.0336456
270,5,0.0044632,0.00892639
270,6,0.00778198,-0.0247574
270,7,0.00724792,-0.0672913
270,8,0.00350952,-0.0746918
270,9,0.00267029,-0.0101852
271,0,0.00213623,0.0647354
271,1,0.00038147,0.0691605
271,2,0.00102997,0.0371552
271,3,0.00171661,0.0202179
271,4,0.00389099,0.00984192
271,5,0.0056076,-0.0106812
271,6,0.00778198,-0.0462341
271,7,0.00648499,-0.0792313
271,8,0.00587463,-0.0502014
271,9,0.00350952,0.022316
272,0,-0.0019455,0.062027
272,1,-0.00480652,0.046463
272,2,-0.00190735,0.00553131
272,3,0.00274658,-0.0254059
272,4,0.00995636,-0.0246048
272,5,0.013504,-0.0104141
272,6,0.00957489,-0.0166321
272,7,0.00278473,-0.0257874
272,8,-0.000686646,-0.0130463
272,9,-0.00038147,-0.00389099
273,0,-0.00534058,-0.0157928
273,1,-0.0148773,-0.0117874
273,2,-0.0164413,0.0241852
273,3,-0.00141144,0.0548553
273,4,0.0105667,0.0553894
273,5,0.0087738,0.0407791
273,6,0.00400543,0.0225449
273,7,0,0.00789642
273,8,0.001297,0.00141144
273,9,0.00293732,0.000991821
274,0,0.00141144,0.00614166
274,1,0.00335693,0.00617981
274,2,0.00499725,-0.000343323
274,3,0.0056076,-0.00545502
274,4,0.00774384,-0.00465393
274,5,0.00965118,-0.00171661
274,6,0.0104904,0.00087738
274,7,0.00938416,0.00259399
274,8,0.00938416,0.00396729
274,9,0.0050354,-0.00976562
275,0,-0.00408173,-0.0324249
275,1,-0.00934601,-0.0336456
275,2,-0.00843048,-0.00602722
275,3,-0.00370026,0.0152588
275,4,0.000839233,0.0197601
275,5,0.000686646,0.0136185
275,6,-0.00450134,0.00553131
275,7,-0.0133896,0.00621796
275,8,-0.0131989,0.0175858
275,9,-0.00812531,0.019455
276,0,-0.00617981,0.00110626
276,1,-0.00846863,-0.0279999
276,2,-0.00774384,-0.0413513
276,3,-0.000724792,-0.0223923
276,4,0.00556946,0.00354767
276,5,0.0069809,0.011673
276,6,0.00408173,0.00553131
276,7,0.00217438,0.00339508
276,8,0.00225067,0.00751495
276,9,0.000343323,0.0146484
277,0,-0.00480652,0.0102997
277,1,-0.00667572,-0.00225067
277,2,-0.00396729,-0.0100327
277,3,-0.00141144,-0.0103378
277,4,-0.00087738,-0.00598907
277,5,-7.62939e-05,-0.00362396
277,6,-0.000839233,-0.00808716
277,7,-0.00457764,-0.0223923
277,8,-0.00263214,-0.0371933
277,9,0.00263214,-0.0262833
278,0,0.00610352,0.0162888
278,1,0.00350952,0.0368118
278,2,0.00328064,0.00984192
278,3,0.00343323,-0.0156403
278,4,0.00476837,-0.00522614
278,5,0.00751495,0.0141907
278,6,0.0119019,0.0167847
278,7,0.0162506,0.0125504
278,8,0.0139999,0.00495911
278,9,0.0103378,-0.00808716
279,0,0.00465393,-0.0134659
279,1,-0.00148773,-0.0069809
279,2,-0.00640869,-0.00347137
279,3,-0.0094986,-0.0100708
279,4,-0.00831604,-0.0147629
279,5,-0.00408173,-0.0151443
279,6,-0.00465393,-0.0146103
279,7,-0.00751495,-0.0115967
279,8,-0.00602722,-0.0037384
279,9,-0.00255585,0.00320435
280,0,-0.000953674,0.00782013
280,1,-0.00324249,0.00858307
280,2,-0.00270844,0.00751495
280,3,-0.00175476,-0.00995636
280,4,-0.00118256,-0.0268555
280,5,-0.00267029,-0.0164795
280,6,-0.00114441,0.0114441
280,7,0.00434875,0.0214386
280,8,0.00774384,0.00705719
280,9,0.00541687,-0.0119781
281,0,0.00339508,-0.0294495
281,1,0.00038147,-0.0275421
281,2,-0.00984192,0.000686646
281,3,-0.0154114,0.0300217
281,4,-0.0115967,0.0387192
281,5,-0.00400543,0.032692
281,6,-0.00339508,0.027504
281,7,-0.00907898,0.0223541
281,8,-0.00892639,0.00862122
281,9,-0.00469208,-0.00564575
282,0,0.00217438,-0.0209427
282,1,0.00831604,-0.0375748
282,2,0.00881195,-0.0202942
282,3,0.00144958,0.026741
282,4,0.00457764,0.0519562
282,5,0.0154114,0.0377655
282,6,0.0196075,0.0181198
282,7,0.014801,0.0183487
282,8,0.0106049,-0.00556946
282,9,0.00682831,-0.0624847
283,0,0.000114441,-0.0763321
283,1,-0.00534058,-0.0241089
283,2,-0.00411987,0.0247192
283,3,-0.00358582,0.0366211
283,4,-0.00511169,0.0258636
283,5,-0.00576019,-0.000762939
283,6,-0.00549316,-0.0204086
283,7,-0.00793457,-0.0214767
283,8,-0.00694275,-0.0239182
283,9,0.00110626,-0.0307846
284,0,0.00743866,-0.0226593
284,1,0.00724792,0.0125504
284,2,0.00179291,0.0460815
284,3,-0.00278473,0.0538254
284,4,-0.0012207,0.0442886
284,5,0.00404358,0.0385284
284,6,0.00576019,0.030899
284,7,0.00350952,0.00972748
284,8,0.00499725,-0.0162888
284,9,0.00854492,-0.0337982
285,0,0.00514984,-0.0448608
285,1,-0.00354767,-0.0435638
285,2,-0.0087738,-0.030098
285,3,-0.00759125,-0.01297
285,4,-0.00343323,-0.000305176
285,5,0.000228882,0.0133133
285,6,0.00247955,0.0205612
285,7,-0.0025177,0.0169754
285,8,-0.00492096,0.0104904
285,9,-0.00354767,0.00740051
286,0,-0.00118256,0.00549316
286,1,0.000953674,0.00450134
286,2,-0.000228882,0.000610352
286,3,-0.00305176,-0.00160217
286,4,-0.00164032,0.00198364
286,5,0.00190735,0.00843048
286,6,0.0037384,0.00659943
286,7,0.00350952,-0.00419617
286,8,0.00209808,-0.0149918
286,9,-0.000572205,-0.0223923
287,0,0.000686646,-0.0384903
287,1,0.00301361,-0.0385666
287,2,0.00385284,0.0104141
287,3,0.00343323,0.0688171
287,4,-0.00102997,0.0699997
287,5,-0.00759125,0.0378799
287,6,-0.0127411,0.0267792
287,7,-0.0149536,0.0102615
287,8,-0.00984192,-0.0317001
287,9,0.000801086,-0.0534439
288,0,0.0117493,-0.0314331
288,1,0.0179672,-0.0101852
288,2,0.0118637,-0.0197601
288,3,0.00522614,-0.0258636
288,4,0.00339508,-0.00900269
288,5,0.00522614,0.0167465
288,6,0.00926971,0.0216293
288,7,0.0138474,0.00164032
288,8,0.0143814,-0.0168228
288,9,0.0129318,-0.0202179
289,0,0.00415802,-0.020752
289,1,-0.00534058,-0.00160217
289,2,-0.00831604,0.0311279
289,3,-0.0044632,0.0395584
289,4,0.000839233,0.0407028
289,5,0.000114441,0.0336075
289,6,-0.00431061,0.0148392
289,7,-0.0105286,-0.00347137
289,8,-0.00900269,-0.0224686
289,9,-0.00293732,-0.0319672
290,0,0.00644684,-0.015831
290,1,0.0144958,0.000495911
290,2,0.0167847,-0.00583649
290,3,0.0101089,-0.0216675
290,4,0.000648499,-0.0352097
290,5,-0.00621796,-0.0281906
290,6,-0.01091,-0.00350952
290,7,-0.0126648,0.00164032
290,8,-0.00988007,-0.0162125
290,9,-0.00770569,-0.0220871
291,0,-0.00980377,-0.0129318
291,1,-0.0108337,-0.00717163
291,2,-0.00904083,-0.00106812
291,3,-0.00476837,0.00946045
291,4,-0.00263214,0.0212097
291,5,-0.00545502,0.0299454
291,6,-0.00858307,0.0249863
291,7,-0.0069046,0.00965118
291,8,-0.00858307,-0.00606537
291,9,-0.00576019,-0.0123978
292,0,-0.00301361,-0.0125885
292,1,0.000991821,-0.0116348
292,2,0.00110626,-0.00907898
292,3,0.00137329,-0.00301361
292,4,0.0043869,0.00400543
292,5,0.00881195,0.0107956
292,6,0.00801086,0.0133896
292,7,0.00602722,0.0126648
292,8,0.00282288,0.0123978
292,9,0.00209808,0.0135803
293,0,0.00164032,0.0110626
293,1,-0.000305176,-0.00282288
293,2,-0.00156403,-0.0213242
293,3,-0.00328064,-0.0193405
293,4,-0.00358582,0.0101471
293,5,-0.0050354,0.0348663
293,6,-0.00591278,0.0400162
293,7,-0.00549316,0.0318909
293,8,-0.000495911,0.0233459
293,9,0.00572205,0.00659943
294,0,0.0063324,-0.0175858
294,1,0.00450134,-0.0380707
294,2,0.00514984,-0.0433731
294,3,0.0075531,-0.0345612
294,4,0.00904083,-0.0187302
294,5,0.00812531,0.018692
294,6,0.0082016,0.0697327
294,7,0.0122833,0.103035
294,8,0.0201035,0.0988007
294,9,0.0246429,0.0513077
295,0,0.0137711,-0.0183487
295,1,-0.00743866,-0.0688553
295,2,-0.0192642,-0.0617599
295,3,-0.0218582,-0.0380325
295,4,-0.0212097,-0.0621414
295,5,-0.018692,-0.0882721
295,6,-0.014267,-0.0639725
295,7,-0.00797272,-0.0209045
295,8,-0.00221252,-0.000991821
295,9,0.00331879,-0.00537872
296,0,0.00946045,-0.010643
296,1,0.0115585,-0.00495911
296,2,0.0102615,0.00282288
296,3,0.00705719,0.0111771
296,4,0.00946045,0.0201797
296,5,0.0120163,0.0243378
296,6,0.00988007,0.0245285
296,7,0.00534058,0.0185776
296,8,-0.00038147,0.0122452
296,9,-0.00240326,0.0130463
297,0,-0.00156403,0.0150299
297,1,-0.0030899,0.0082016
297,2,-0.00564575,-0.00038147
297,3,-0.00789642,-0.00232697
297,4,-0.00774384,0.000190735
297,5,-0.00415802,-0.00232697
297,6,-0.00339508,-0.0150299
297,7,-0.00511169,-0.0223541
297,8,-0.00270844,-0.00354767
297,9,-0.00354767,0.0297165
298,0,-0.00724792,0.0417328
298,1,-0.00511169,0.0344467
298,2,-0.00221252,0.0265503
298,3,-0.000953674,0.0213623
298,4,0.00537872,0.0197601
298,5,0.0111771,0.0159454
298,6,0.00900269,0.00274658
298,7,0.00385284,-0.010643
298,8,0.00221252,-0.0242996
298,9,0.00106812,-0.0416183
299,0,-0.00247955,-0.0463867
299,1,-0.00835419,-0.020752
299,2,-0.0088501,0.00995636
299,3,-0.00511169,0.0243378
299,4,0.00164032,0.0260162
299,5,0.00495911,0.0221634
299,6,0.00896454,0.0207138
299,7,0.00579834,0.0212097
299,8,0.00450134,0.0172424
299,9,0.00160217,-0.00797272
300,0,3.8147e-05,-0.028801
300,1,-0.000953674,-0.0110626
300,2,7.62939e-05,0.0141525
300,3,0.00213623,0.000228882
300,4,0.0038147,-0.0294876
300,5,0.0037384,-0.0514984
300,6,0.00339508,-0.0473022
300,7,0.00617981,-0.0281525
300,8,0.0109482,-0.0189209
300,9,0.00961304,-0.0214767
301,0,-0.00038147,-0.0217819
301,1,-0.00854492,-0.00293732
301,2,-0.00331879,0.0162125
301,3,0.00984192,0.0224686
301,4,0.0138474,0.0271606
301,5,0.00881195,0.0205231
301,6,-0.000534058,0.00110626
301,7,-0.0112152,-0.00606537
301,8,-0.0256729,0.014267
301,9,-0.0261688,0.0288773
302,0,-0.0115204,0.0247574
302,1,0.00442505,0.013504
302,2,0.00766754,-0.0018692
302,3,0.0069046,-0.0279617
302,4,0.00850677,-0.0591278
302,5,0.0155258,-0.0664902
302,6,0.0194931,-0.0368881
302,7,0.0191498,-0.00778198
302,8,0.0185776,-0.00553131
302,9,0.0130463,-0.0180435
303,0,0.00598907,-0.0185394
303,1,-0.00713348,-0.00205994
303,2,-0.0168228,0.013237
303,3,-0.0220108,0.015564
303,4,-0.0195312,0.0102997
303,5,-0.0119781,0.00724792
303,6,-0.00782013,0.00709534
303,7,-0.0100708,0.00400543
303,8,-0.0146103,0.00637054
303,9,-0.0147629,0.0148392
304,0,-0.0143433,0.0194168
304,1,-0.0135422,0.0174332
304,2,-0.013504,0.0044632
304,3,-0.0088501,-0.0094986
304,4,-0.00087738,-0.00225067
304,5,0.00392914,0.0315094
304,6,0.00522614,0.0621033
304,7,0.00671387,0.0673294
304,8,0.0069046,0.0470352
304,9,0.0050354,0.0275421
305,0,0.00419617,0.0205994
305,1,0.00137329,0.00179291
305,2,-0.00385284,-0.0213623
305,3,-0.00701904,-0.0295639
305,4,-0.00499725,-0.0399399
305,5,0.00144958,-0.050621
305,6,0.00549316,-0.0328064
305,7,0.00347137,-0.00869751
305,8,0.000648499,0.00312805
305,9,-0.000762939,0.0186539
306,0,0,0.0491333
306,1,0.00766754,0.0746536
306,2,0.015831,0.0632858
306,3,0.0155258,0.0183105
306,4,0.0114059,-0.0273895
306,5,0.00854492,-0.0460052
306,6,0.0112534,-0.0328445
306,7,0.0123215,-0.0153351
306,8,0.0125885,-0.0069809
306,9,0.00995636,-0.00553131
307,0,0.00167847,-0.00492096
307,1,-0.00297546,-0.001297
307,2,-0.00339508,-0.00217438
307,3,0.00106812,-0.0143433
307,4,0.00141144,-0.0125122
307,5,0.00164032,0.00591278
307,6,0.00347137,0.00617981
307,7,0.000305176,-0.00850677
307,8,-0.00427246,-0.00675201
307,9,-0.00499725,0.0082016
308,0,-0.00183105,0.0111771
308,1,-0.00415802,0.00572205
308,2,-0.00679016,0.014801
308,3,-0.00946045,0.0173569
308,4,-0.00701904,-0.0106812
308,5,-0.00152588,-0.0353622
308,6,0.000724792,-0.0226974
308,7,0.00102997,-0.00785828
308,8,-0.000572205,-0.0269699
308,9,-0.00247955,-0.0407791
309,0,-0.0038147,-0.0214005
309,1,-0.00492096,-0.00305176
309,2,-0.00465393,-0.00114441
309,3,-0.00469208,0.00335693
309,4,-0.00423431,0.00659943
309,5,-0.00408173,-0.00694275
309,6,-0.00385284,-0.0217819
309,7,-0.000457764,-0.0139618
309,8,0.00579834,0.00720978
309,9,0.0130844,0.0230408
310,0,0.0131607,0.0218201
310,1,0.0069809,0.0201035
310,2,0.00274658,0.0251007
310,3,-0.00457764,0.0288391
310,4,-0.00888824,0.0262833
310,5,-0.0063324,0.0259399
310,6,-0.0037384,0.0243378
310,7,-0.00370026,0.00652313
310,8,-0.00492096,-0.0307846
310,9,-0.00514984,-0.0680923
311,0,-0.00461578,-0.0764465
311,1,-0.0037384,-0.0452423
311,2,-0.00415802,-0.00167847
311,3,-0.0069046,0.0208282
311,4,-0.00476837,0.0320816
311,5,-0.000457764,0.0395966
311,6,0.00442505,0.0253677
311,7,0.00461578,-0.000724792
311,8,0.00595093,0.00190735
311,9,0.00850677,0.0240326
312,0,0.0113678,0.0238037
312,1,0.00907898,0.0038147
312,2,0.00495911,-0.00858307
312,3,0.00106812,-0.0186157
312,4,0.00377655,-0.0289917
312,5,0.00785828,-0.0156403
312,6,0.00724792,0.0069809
312,7,0.00324249,-0.00404358
312,8,-7.62939e-05,-0.0275803
312,9,-0.00137329,-0.0190735
313,0,-0.0050354,0.0150299
313,1,-0.00961304,0.0331116
313,2,-0.0087738,0.0298309
313,3,-0.00339508,0.0319672
313,4,0.00038147,0.0245667
313,5,0.000724792,-0.00366211
313,6,-0.0012207,-0.014534
313,7,-0.00289917,0.00492096
313,8,-0.00267029,0.0149918
313,9,-0.00133514,-0.0149536
314,0,-0.00137329,-0.0561142
314,1,-0.00160217,-0.0540543
314,2,-0.00240326,-0.017662
314,3,-0.000610352,0.0120926
314,4,0.00259399,0.0268555
314,5,0.00602722,0.0187683
314,6,0.00705719,-0.00522614
314,7,0.00476837,-0.0209427
314,8,0.00556946,-0.0252533
314,9,0.00892639,-0.0294495
315,0,0.0087738,-0.0243759
315,1,0.00873566,0.000305176
315,2,0.00869751,0.0262833
315,3,0.000534058,0.0413513
315,4,-0.0128555,0.0436401
315,5,-0.0183868,0.0435257
315,6,-0.0104523,0.049057
315,7,-0.00221252,0.0540543
315,8,-0.00156403,0.0533295
315,9,-0.00610352,0.0351715
316,0,-0.0101852,-0.0038147
316,1,-0.0151825,-0.0302505
316,2,-0.0157547,-0.0192642
316,3,-0.0109482,0.00461578
316,4,-0.00366211,0.00976562
316,5,-0.000267029,-0.0212479
316,6,-0.0019455,-0.0580978
316,7,-0.00720978,-0.0935745
316,8,-0.0146103,-0.1577
316,9,-0.0136185,-0.188522
317,0,-0.00144958,-0.100822
317,1,0.0109863,0.0414658
317,2,0.0202179,0.111961
317,3,0.0226212,0.08358
317,4,0.0111389,0.0270462
317,5,-0.00434875,-0.00492096
317,6,-0.0043869,-0.00888824
317,7,0.00709534,-0.00213623
317,8,0.0142288,0.00450134
317,9,0.0133896,0.0152588
318,0,0.00999451,0.0214005
318,1,0.0105667,0.00621796
318,2,0.00965118,-0.00362396
318,3,0.00545502,0.0106049
318,4,0.00576019,0.0173187
318,5,0.00728607,0.0252151
318,6,0.0075531,0.0447083
318,7,0.00526428,0.0522995
318,8,0.00457764,0.0419998
318,9,0.00465393,0.0236893
319,0,3.8147e-05,0.00923157
319,1,-0.00312805,-0.00137329
319,2,-0.001297,-0.0069046
319,3,0.00137329,-0.00862122
319,4,0.00347137,-0.00366211
319,5,0.00514984,0.00587463
319,6,0.00205994,0.0234222
319,7,-0.00587463,0.0441742
319,8,-0.00774384,0.0439835
319,9,-0.00717163,0.0152969
320,0,-0.00499725,-0.0148392
320,1,-0.00541687,-0.0309753
320,2,-0.00862122,-0.0297928
320,3,-0.00747681,-0.0228882
320,4,-0.00480652,-0.0194931
320,5,-0.00377655,-0.0113297
320,6,-0.00484467,0.000686646
320,7,-0.00476837,0.000915527
320,8,-0.00171661,-0.00858307
320,9,-0.0018692,-0.00827789
321,0,-0.00389099,0.000686646
321,1,-0.00713348,0.00331879
321,2,-0.00896454,0.0136566
321,3,-0.00995636,0.02285
321,4,-0.0114822,-0.000495911
321,5,-0.0082016,-0.0334549
321,6,-0.000343323,-0.0336075
321,7,0.00423431,-0.0154495
321,8,0.00312805,-0.000152588
321,9,0.00305176,0.0235748
322,0,0.000419617,0.0416946
322,1,0.00293732,0.0169373
322,2,0.00591278,-0.0312805
322,3,0.00648499,-0.0458908
322,4,0.0030899,-0.0328064
322,5,0.00213623,-0.0243759
322,6,0.00621796,-0.0218964
322,7,0.0110245,-0.00286102
322,8,0.0114822,0.0308228
322,9,0.0100708,0.0377274
323,0,0.00587463,0.0136185
323,1,-0.000991821,-0.0142288
323,2,-0.00923157,-0.0230789
323,3,-0.0148392,-0.0069046
323,4,-0.0153351,0.0176239
323,5,-0.00896454,0.0362778
323,6,-0.00354767,0.045433
323,7,-0.00408173,0.0322342
323,8,-0.00137329,-0.0146866
323,9,0.010643,-0.0540924
324,0,0.0177765,-0.0384521
324,1,0.0152206,-0.000267029
324,2,0.00282288,0.00751495
324,3,-0.00736237,-0.00553131
324,4,-0.00450134,-0.0123978
324,5,0.00659943,-0.0125885
324,6,0.011673,-0.0166702
324,7,0.00522614,-0.0185013
324,8,-0.00659943,-0.016861
324,9,-0.0118256,-0.0175095
325,0,-0.00782013,-0.0177002
325,1,-0.00328064,-0.00968933
325,2,0.000572205,-0.00530243
325,3,0.00301361,-0.00629425
325,4,0.0025177,0.00217438
325,5,-0.000152588,0.0157547
325,6,-0.00232697,0.0245285
325,7,-0.00267029,0.0254822
325,8,-0.00160217,0.0208664
325,9,-0.000648499,0.011673
326,0,0.00270844,0.00118256
326,1,0.000152588,-0.00354767
326,2,0.0019455,-0.00534058
326,3,0.00377655,-0.00339508
326,4,0.00621796,0.00240326
326,5,0.00743866,0.00980377
326,6,0.00831604,0.0155258
326,7,0.00934601,0.0267029
326,8,0.00804901,0.0463486
326,9,0.00679016,0.0569153
327,0,0.0019455,0.0469971
327,1,-0.00400543,0.0237656
327,2,-0.00900269,-0.00347137
327,3,-0.00892639,-0.0243378
327,4,-0.00888824,-0.0382614
327,5,-0.00572205,-0.0551224
327,6,-0.00282288,-0.0789642
327,7,-0.00164032,-0.0632477
327,8,-0.0031662,0.00415802
327,9,-0.00419617,0.0382996
328,0,-0.00335693,0.00267029
328,1,-0.00205994,-0.0492096
328,2,0.00392914,-0.0549316
328,3,0.0118256,-0.00263214
328,4,0.0172424,0.0450134
328,5,0.0182724,0.0533295
328,6,0.0105286,0.0450897
328,7,0.00152588,0.0328827
328,8,-0.00511169,0.0136948
328,9,-0.0069046,-0.0102997
329,0,-0.00576019,-0.0343323
329,1,-0.0056076,-0.0524139
329,2,-0.00869751,-0.0605011
329,3,-0.0114059,-0.0520325
329,4,-0.00968933,-0.014267
329,5,-0.00328064,0.0503159
329,6,0.0038147,0.0941467
329,7,0.00534058,0.0912094
329,8,0.0018692,0.0638962
329,9,-0.00175476,0.0259018
330,0,-7.62939e-05,-0.0200653
330,1,0.00553131,-0.0468445
330,2,0.00621796,-0.0487137
330,3,0.00526428,-0.0352097
330,4,0.00968933,-0.0154114
330,5,0.0171661,0.00720978
330,6,0.0200653,0.0257492
330,7,0.0165558,0.0353241
330,8,0.011673,0.024147
330,9,0.00854492,-0.00328064
331,0,0.00736237,-0.0169754
331,1,0.00701904,-0.0112152
331,2,0.000648499,-0.000419617
331,3,-0.00850677,-0.00240326
331,4,-0.0104904,-0.0130463
331,5,-0.0062561,-0.0142288
331,6,-0.00267029,0.00125885
331,7,-0.00671387,0.0246429
331,8,-0.0101852,0.0336456
331,9,-0.0114822,0.0225449
332,0,-0.00843048,0.00595093
332,1,-0.00919342,-0.00602722
332,2,-0.0128555,-0.00930786
332,3,-0.0117874,-0.0208664
332,4,-0.00869751,-0.0335312
332,5,-0.00663757,-0.0140762
332,6,-0.00541687,0.0153351
332,7,-0.00736237,0.0186539
332,8,-0.0152588,0.0110245
332,9,-0.0205994,0.00682831
333,0,-0.0128937,-0.00198364
333,1,-0.00602722,-0.0127411
333,2,-0.0025177,-0.0128937
333,3,-0.00370026,0.00984192
333,4,-0.0025177,0.0419235
333,5,0.000419617,0.0335312
333,6,0.00198364,-0.00701904
333,7,-0.00385284,-0.0406647
333,8,-0.00843048,-0.059166
333,9,-0.00465393,-0.0686264
334,0,0.00530243,-0.0565338
334,1,0.0087738,-0.0258636
334,2,0.00278473,0.00598907
334,3,0.00102997,0.0294113
334,4,0.0063324,0.0349808
334,5,0.0110626,0.0174713
334,6,0.0117111,0.00736237
334,7,0.0167465,0.0196075
334,8,0.0286484,0.0242233
334,9,0.0299835,0.00553131
335,0,0.0170898,-0.0118637
335,1,-0.000419617,-0.0280762
335,2,-0.00736237,-0.0470734
335,3,-0.00541687,-0.0402451
335,4,-0.00415802,-0.0123215
335,5,-0.00587463,0.0123978
335,6,-0.00736237,0.0197601
335,7,-0.00881195,0.0172424
335,8,-0.00431061,0.0286484
335,9,0.00263214,0.0362778
336,0,0.00606537,0.0259781
336,1,0.00278473,0.00598907
336,2,-0.000839233,-0.00175476
336,3,-0.0043869,-0.00656128
336,4,-0.00526428,-0.0219345
336,5,-0.00656128,-0.0284958
336,6,-0.00835419,-0.0143433
336,7,-0.00823975,0.00179291
336,8,-0.00591278,0.00747681
336,9,-0.00267029,0.00576019
337,0,-0.0012207,0.00339508
337,1,-0.00312805,-0.00335693
337,2,-0.00427246,-0.0113297
337,3,-0.00305176,-0.000114441
337,4,-0.00270844,0.0336838
337,5,-0.00274658,0.0616837
337,6,-0.00488281,0.0552368
337,7,-0.00881195,0.0165558
337,8,-0.00926971,-0.0233459
337,9,-0.00576019,-0.0377655
338,0,-0.00225067,-0.0305557
338,1,0.00152588,-0.00244141
338,2,0.0056076,0.0125122
338,3,0.00774384,-0.00667572
338,4,0.00919342,-0.021286
338,5,0.011673,-0.00869751
338,6,0.0117493,0.00339508
338,7,0.00892639,-0.00808716
338,8,0.00846863,-0.022316
338,9,0.0100327,-0.0105667
339,0,0.00770569,0.0178528
339,1,0.00289917,0.0323486
339,2,-0.0018692,0.0360489
339,3,-0.00495911,0.0403595
339,4,-0.0075531,0.0212097
339,5,-0.00385284,-0.0188446
339,6,0.00717163,-0.0465012
339,7,0.00846863,-0.0418091
339,8,0.00770569,-0.03479
339,9,0.00789642,-0.0588226
340,0,0.00816345,-0.0788498
340,1,0.0105667,-0.0486755
340,2,0.00656128,0.0110245
340,3,-0.0056076,0.0423813
340,4,-0.0120544,0.0347137
340,5,-0.0104904,0.0138474
340,6,-0.00801086,0.00270844
340,7,-0.00621796,0.0167847
340,8,-0.00217438,0.0360107
340,9,0.00255585,0.0173187
341,0,0.00312805,-0.0302505
341,1,0.00217438,-0.045166
341,2,-0.000305176,-0.0156403
341,3,-0.001297,0.0151062
341,4,-0.00297546,0.0344849
341,5,-0.00240326,0.0474167
341,6,0.00038147,0.0384521
341,7,-0.000534058,0.00114441
341,8,-0.00450134,-0.0350952
341,9,-0.00549316,-0.0535965
342,0,-0.00335693,-0.0420761
342,1,-0.00106812,-0.0037384
342,2,0.00102997,0.042305
342,3,0.00114441,0.0611115
342,4,0.0018692,0.0498581
342,5,0.00484467,0.0248718
342,6,0.00846863,0.00724792
342,7,0.0108719,0.00118256
342,8,0.0129318,-0.000648499
342,9,0.0107574,-0.0030899
343,0,0.00556946,-0.00553131
343,1,-0.000572205,-0.00492096
343,2,-0.00347137,-0.000457764
343,3,-0.00518799,0.000534058
343,4,-0.00656128,-0.00476837
343,5,-0.00644684,-0.00778198
343,6,-0.00785828,-0.00148773
343,7,-0.0082016,0.00282288
343,8,-0.00785828,0.00102997
343,9,-0.00431061,0.00366211
344,0,-0.00370026,0.00728607
344,1,-0.00709534,0.00141144
344,2,-0.00701904,-0.0118256
344,3,-0.0056076,-0.0125122
344,4,-0.000762939,0.00682831
344,5,0.00225067,0.0226593
344,6,0.00118256,0.0224304
344,7,-0.000839233,0.0156784
344,8,-0.00476837,0.00347137
344,9,-0.00572205,-0.0344086
345,0,-0.00148773,-0.072937
345,1,-0.000305176,-0.0483704
345,2,-0.00110626,0.00980377
345,3,-0.000343323,0.031662
345,4,0.00473022,0.0220871
345,5,0.0102234,0.0199509
345,6,0.0102997,0.0279999
345,7,0.00408173,0.0279999
345,8,0.000839233,-0.00236511
345,9,0.00358582,-0.0344467
346,0,0.00659943,-0.0345612
346,1,0.00789642,-0.00682831
346,2,0.00198364,0.0164795
346,3,-0.00343323,0.018959
346,4,-0.00278473,0.0178909
346,5,0.00411987,0.0182724
346,6,0.00980377,-0.00415802
346,7,0.00934601,-0.0408554
346,8,0.0115967,-0.0414658
346,9,0.0181961,-0.00663757
347,0,0.0222015,0.0122452
347,1,0.0193024,0.0244904
347,2,0.0138855,0.0502396
347,3,0.00583649,0.0448227
347,4,0.00160217,-0.0273895
347,5,-0.000724792,-0.112648
347,6,-0.000686646,-0.106049
347,7,-0.00736237,-0.0326538
347,8,-0.0112152,0.0262451
347,9,-0.0115204,0.0432205
348,0,-0.0136185,0.0287628
348,1,-0.0149918,0.00217438
348,2,-0.0150299,-0.0108719
348,3,-0.0101471,-0.00637054
348,4,-0.00476837,-0.00240326
348,5,-0.00110626,-0.00598907
348,6,-0.00213623,0.0044632
348,7,-0.00537872,0.0338745
348,8,-0.0106812,0.0605011
348,9,-0.0125504,0.0669098
349,0,-0.0120544,0.0515366
349,1,-0.0121689,0.0056076
349,2,-0.00980377,-0.0398254
349,3,-0.00923157,-0.0558853
349,4,-0.00946045,-0.0628662
349,5,-0.00907898,-0.0611496
349,6,-0.00705719,-0.0315475
349,7,-0.0050354,0.0208282
349,8,-0.000915527,0.0602722
349,9,0.00087738,0.0587463
350,0,0.00354767,0.037384
350,1,0.00648499,0.0286865
350,2,0.00682831,0.0254822
350,3,0.0094986,-3.8147e-05
350,4,0.0111008,-0.0568771
350,5,0.0123596,-0.0896835
350,6,0.00957489,-0.0607681
350,7,0.000686646,0.000190735
350,8,-0.00846863,0.0510406
350,9,-0.00545502,0.0745773
351,0,0.00617981,0.0775528
351,1,0.00999451,0.049324
351,2,0.00862122,-0.000801086
351,3,0.00762939,-0.0566483
351,4,0.0063324,-0.0784683
351,5,0.00782013,-0.0392914
351,6,0.0111008,0.0312424
351,7,0.00976562,0.0672531
351,8,0.00473022,0.0449753
351,9,0.00648499,-0.015831
352,0,0.0112152,-0.069809
352,1,0.00701904,-0.0828171
352,2,0.000953674,-0.043335
352,3,-0.00534058,0.0198746
352,4,-0.00663757,0.0572205
352,5,-0.00541687,0.0567245
352,6,-0.00484467,0.0340652
352,7,-0.00270844,0.00480652
352,8,0.00190735,-0.019989
352,9,0.0110626,-0.0304794
353,0,0.014267,-0.0413513
353,1,0.00511169,-0.0449371
353,2,-0.00846863,-0.0255203
353,3,-0.013237,0.0135422
353,4,-0.00499725,0.0271988
353,5,0.000648499,0.0043869
353,6,0.000267029,-0.0242996
353,7,-0.00324249,-0.0424957
353,8,-0.00583649,-0.0430679
353,9,-0.00839233,-0.0262833
354,0,-0.00980377,0.00846863
354,1,-0.0106812,0.0468445
354,2,-0.0112915,0.0523758
354,3,-0.00747681,0.020256
354,4,0.0012207,-0.00976562
354,5,0.00995636,-0.00953674
354,6,0.0117874,0.00484467
354,7,0.00743866,0.0109482
354,8,0.00297546,0.00968933
354,9,0.000228882,0.00976562
355,0,-0.00431061,0.014267
355,1,-0.010376,0.0205612
355,2,-0.0113297,0.0236893
355,3,-0.00843048,0.0247574
355,4,-0.00652313,0.0304031
355,5,-0.00522614,0.0193405
355,6,-0.00499725,-0.0331116
355,7,-0.00705719,-0.0855637
355,8,-0.00919342,-0.0799942
355,9,-0.00785828,-0.041275
356,0,-0.00511169,-0.0101089
356,1,-0.0038147,0.0362778
356,2,-0.00431061,0.0874329
356,3,-0.00114441,0.0732803
356,4,0.00385284,0.00629425
356,5,0.00789642,-0.0125504
356,6,0.00869751,0.0136566
356,7,0.00793457,0.0134659
356,8,0.00911713,-0.0185776
356,9,0.00919342,-0.0609589
357,0,0.00663757,-0.108795
357,1,0.00675201,-0.119286
357,2,0.00995636,-0.0489044
357,3,0.0143051,0.0490189
357,4,0.0175476,0.0809479
357,5,0.0208664,0.0639725
357,6,0.0169373,0.056076
357,7,-0.00087738,0.0408173
357,8,-0.0136566,0.0172043
357,9,-0.0143814,0.000419617
358,0,-0.00759125,-0.0063324
358,1,0.00038147,-0.000610352
358,2,0.00988007,0.0114059
358,3,0.0144196,0.00217438
358,4,0.0166702,-0.0198746
358,5,0.0210571,-0.0150681
358,6,0.0238419,0.0181198
358,7,0.0185394,0.0418854
358,8,0.00823975,0.0304031
358,9,0.000762939,-0.00770569
359,0,-0.00339508,-0.0349808
359,1,-0.00907898,-0.0257111
359,2,-0.0166702,0.00629425
359,3,-0.0197983,0.0254822
359,4,-0.018692,0.0380325
359,5,-0.0182343,0.056839
359,6,-0.0128174,0.0527573
359,7,-0.00968933,0.00423431
359,8,-0.00675201,-0.049057
359,9,-0.00087738,-0.0617599
360,0,0.00484467,-0.0453568
360,1,0.00682831,-0.0298309
360,2,0.00423431,-0.026741
360,3,0.00354767,-0.0300217
360,4,0.00709534,-0.0215149
360,5,0.0119019,-0.0056839
360,6,0.01091,-0.0115585
360,7,0.00175476,-0.0112915
360,8,-0.0110245,-7.62939e-05
360,9,-0.0217819,-0.00946045
361,0,-0.0271606,-0.0127792
361,1,-0.026741,0.0111008
361,2,-0.0186157,0.0205612
361,3,-0.00823975,0.0128174
361,4,-0.000610352,0.00843048
361,5,0.00221252,0.00659943
361,6,0.000839233,-0.00591278
361,7,-0.0025177,-0.0120926
361,8,0.0019455,-0.00682831
361,9,0.0088501,-0.00732422
362,0,0.0137711,-0.00724792
362,1,0.00843048,0.00919342
362,2,-0.00858307,0.0300217
362,3,-0.0151443,0.0291443
362,4,-0.00850677,0.0242233
362,5,0.00125885,0.0392151
362,6,0.00816345,0.0501633
362,7,0.0139999,0.0453186
362,8,0.0168228,0.0470734
362,9,0.0161362,0.0580597
363,0,0.0131607,0.0524902
363,1,0.00896454,0.0140381
363,2,0.00972748,-0.0494385
363,3,0.00766754,-0.111618
363,4,0.00415802,-0.143013
363,5,0.000839233,-0.100746
363,6,0.00297546,-0.029068
363,7,0.00190735,-0.00396729
363,8,-0.00541687,0.00514984
363,9,-0.00926971,0.0494385
364,0,-0.00442505,0.0759888
364,1,0.00202179,0.0513077
364,2,0.00400543,0.0128555
364,3,0.00244141,-0.0208282
364,4,0.00415802,-0.060997
364,5,0.00743866,-0.105209
364,6,0.00759125,-0.09655
364,7,0.00343323,-0.0200653
364,8,-0.00102997,0.0646973
364,9,-0.0018692,0.110779
365,0,0,0.100899
365,1,0.00087738,0.0363159
365,2,0.0012207,-0.0340652
365,3,0.0025177,-0.0478363
365,4,-0.000839233,-0.0322342
365,5,-0.00236511,-0.0362778
365,6,-0.00144958,-0.0300217
365,7,-0.00396729,0.00495911
365,8,-0.00747681,0.0328064
365,9,-0.00534058,0.0338364
366,0,-0.00305176,0.026741
366,1,-0.00144958,0.0247955
366,2,-0.000839233,0.0178528
366,3,0.000686646,0.00606537
366,4,0.000801086,-0.0127411
366,5,0.00171661,-0.030899
366,6,0.00335693,-0.0399399
366,7,0.00328064,-0.0405121
366,8,0.00213623,-0.030365
366,9,-0.000267029,-0.00301361
367,0,-0.00679016,0.026474
367,1,-0.0125885,0.0593185
367,2,-0.0128174,0.0942993
367,3,-0.0124359,0.0954056
367,4,-0.0108719,0.0758743
367,5,-0.0075531,0.0616455
367,6,-0.00247955,0.0130463
367,7,-0.0031662,-0.0341034
367,8,-0.00621796,-0.0498199
367,9,-0.00312805,-0.0555038
368,0,0.00461578,-0.0601959
368,1,0.00984192,-0.064888
368,2,0.00900269,-0.0757217
368,3,0.0037384,-0.0833893
368,4,0.000610352,-0.0451279
368,5,0.00358582,0.0255585
368,6,0.00652313,0.0601959
368,7,0.00713348,0.0411606
368,8,0.00759125,0.00694275
368,9,0.00629425,-0.0162888
369,0,0.00679016,-0.0263977
369,1,0.00766754,-0.029335
369,2,0.00617981,-0.0248337
369,3,0.0116348,-0.0128174
369,4,0.0147629,-0.0025177
369,5,0.0069046,-0.00286102
369,6,-0.00473022,-0.0147629
369,7,-0.013237,-0.0253296
369,8,-0.0135803,-0.022049
369,9,-0.00576019,0.0134659
370,0,-0.00190735,0.0574493
370,1,0.000839233,0.0774002
370,2,0.00385284,0.0682068
370,3,0.00286102,0.0503922
370,4,0.00114441,0.0419998
370,5,0.00141144,0.053978
370,6,0.00732422,0.0591278
370,7,0.0124359,0.0323868
370,8,0.010643,-0.0025177
370,9,0.0056076,-0.0266266
371,0,-0.00133514,-0.0443268
371,1,-0.00808716,-0.0398254
371,2,-0.012207,-0.000991821
371,3,-0.01297,0.0384903
371,4,-0.0107956,0.0510406
371,5,-0.0102997,0.0252914
371,6,-0.0069809,-0.0242615
371,7,-0.00469208,-0.0351334
371,8,-0.00198364,-0.000610352
371,9,0.00213623,0.00831604
372,0,0.00362396,-0.0336838
372,1,0.000228882,-0.0669479
372,2,-0.00354767,-0.0610352
372,3,-0.00549316,-0.0324631
372,4,-0.00484467,0.00843048
372,5,-0.0025177,0.0460815
372,6,3.8147e-05,0.0433731
372,7,0.000343323,0.0069809
372,8,-0.00110626,-0.0225067
372,9,-0.00274658,-0.0395966
373,0,-0.0025177,-0.0165939
373,1,-0.00125885,0.0385284
373,2,-0.000228882,0.0322723
373,3,0.00297546,-0.0435638
373,4,0.00362396,-0.0849533
373,5,0.00366211,-0.0591278
373,6,0.00270844,-0.0188065
373,7,-0.00255585,0.00259399
373,8,-0.00801086,0.0166321
373,9,-0.00301361,0.0289154
374,0,0.00484467,0.0216675
374,1,0.0075531,0.00434875
374,2,0.0100708,-0.00675201
374,3,0.0148773,0.00476837
374,4,0.0160599,0.0141525
374,5,0.0143051,-0.0314331
374,6,0.0145721,-0.0894165
374,7,0.0130463,-0.0701904
374,8,0.00713348,0.00526428
374,9,0.00114441,0.0530243
375,0,-0.0069809,0.0345612
375,1,-0.0141907,0.0137329
375,2,-0.0163269,0.0203705
375,3,-0.011673,0.0286865
375,4,-0.00843048,0.0292587
375,5,-0.00652313,0.00827789
375,6,-0.00709534,-0.0246429
375,7,-0.00938416,-0.0334167
375,8,-0.00652313,-0.025444
375,9,0.00465393,-0.0215912
376,0,0.0104523,-0.00709534
376,1,0.0112152,0.016098
376,2,0.00995636,0.0107193
376,3,0.0025177,-0.00339508
376,4,-0.00919342,0.0104141
376,5,-0.0159073,0.0401688
376,6,-0.0125122,0.0395584
376,7,-0.00293732,0.0125122
376,8,0.00354767,-0.0285721
376,9,0.00354767,-0.0738907
377,0,0.00278473,-0.070343
377,1,0.000495911,-0.00762939
377,2,-0.00289917,0.0466919
377,3,-0.00343323,0.0523376
377,4,-0.00278473,0.0368118
377,5,-0.00102997,0.0251389
377,6,-0.00514984,0.017395
377,7,-0.0125504,0.00923157
377,8,-0.0160599,-0.0137711
377,9,-0.00644684,-0.0453949
378,0,0.00247955,-0.0428009
378,1,0.00579834,-0.0162888
378,2,0.00534058,0.00457764
378,3,0.00148773,0.0123215
378,4,0.0012207,0.0107193
378,5,0.000419617,0.0176239
378,6,0.000343323,0.0381088
378,7,0.000267029,0.0413513
378,8,0.00442505,0.0292587
378,9,0.0120163,0.0291443
379,0,0.0142288,0.0393295
379,1,0.00961304,0.0437546
379,2,0.00507355,0.0416565
379,3,-0.00137329,0.0430679
379,4,-0.00709534,0.0442505
379,5,-0.0109863,0.0387192
379,6,-0.01297,0.0094223
379,7,-0.0115585,-0.0497055
379,8,-0.00869751,-0.088768
379,9,-0.00354767,-0.0653076
380,0,0.00179291,-0.00724792
380,1,-0.000419617,0.021019
380,2,0.00106812,0.00736237
380,3,0.00495911,-0.0156784
380,4,0.00518799,-0.0243378
380,5,0.00152588,-0.0225067
380,6,-0.00312805,-0.0255203
380,7,-0.00549316,-0.0337982
380,8,-0.00469208,-0.0371552
380,9,-0.000457764,-0.0367355
381,0,0.00656128,-0.00732422
381,1,0.0104141,0.0205231
381,2,0.013237,0.0094986
381,3,0.0166702,0.00160217
381,4,0.0177383,0.0212479
381,5,0.0100327,0.0395584
381,6,-0.0056839,0.0426483
381,7,-0.0206757,0.0463486
381,8,-0.0237274,0.0566483
381,9,-0.0111389,0.0521469
382,0,7.62939e-05,0.0323486
382,1,0.00812531,-0.00850677
382,2,0.0143433,-0.073204
382,3,0.0154114,-0.101433
382,4,0.0121689,-0.0599289
382,5,0.00839233,0.00648499
382,6,0.00976562,0.0302505
382,7,0.010643,0.0117874
382,8,0.00881195,-0.0123215
382,9,0.00972748,-0.0427628
383,0,0.00766754,-0.0773621
383,1,-0.00087738,-0.0741959
383,2,-0.00724792,-0.0389862
383,3,-0.0102997,-0.00514984
383,4,-0.00892639,0.00617981
383,5,-0.00572205,-0.00247955
383,6,-0.00720978,-0.0174332
383,7,-0.0115967,-0.0195694
383,8,-0.00709534,0.00766754
383,9,0.000228882,0.0335693
384,0,0.00713348,0.019722
384,1,0.00488281,-0.0227356
384,2,-0.000648499,-0.0432587
384,3,-0.0044632,-0.0281906
384,4,-0.00434875,0.00728607
384,5,-0.00102997,0.0402451
384,6,-0.000991821,0.0550461
384,7,-0.000495911,0.0412369
384,8,0.000267029,0.00785828
384,9,-0.0043869,-0.00789642
385,0,-0.00846863,0.0056076
385,1,-0.00740051,0.0312805
385,2,-0.00480652,0.0424194
385,3,-0.00190735,0.032692
385,4,-0.00164032,0.0169373
385,5,-0.00350952,0.00923157
385,6,-0.00637054,0.00423431
385,7,-0.0069046,-0.0230026
385,8,-0.00629425,-0.0553894
385,9,-0.00209808,-0.0427246
386,0,0.00156403,0.0105667
386,1,0.00228882,0.0491714
386,2,0.00293732,0.0401688
386,3,0.00137329,0.0162125
386,4,0.00102997,0.00663757
386,5,0.00507355,0.00534058
386,6,0.00934601,-0.00236511
386,7,0.0107574,-0.00507355
386,8,0.00816345,-0.00392914
386,9,0.00537872,-0.0018692
387,0,0.00305176,0.0043869
387,1,-0.00125885,0.0165558
387,2,-0.00602722,0.0202942
387,3,-0.0087738,0.0031662
387,4,-0.0094223,-0.0294495
387,5,-0.00724792,-0.0470734
387,6,-0.00205994,-0.0384903
387,7,0.00293732,-0.0222397
387,8,0.00110626,-0.018425
387,9,0.00133514,0.0133133
388,0,0.000762939,0.083046
388,1,-0.00648499,0.117607
388,2,-0.0109863,0.0933456
388,3,-0.00953674,0.0597763
388,4,0.000991821,0.00953674
388,5,0.0108337,-0.0780106
388,6,0.0114822,-0.131264
388,7,0.00934601,-0.119743
388,8,0.0111771,-0.101166
388,9,0.0159454,-0.067215
389,0,0.0164032,-0.00804901
389,1,0.0123215,0.0437927
389,2,0.00789642,0.0539017
389,3,0.00808716,0.0247955
389,4,0.00991821,-0.0104904
389,5,0.00843048,-0.021286
389,6,0.00495911,-0.0136566
389,7,-0.000152588,-0.0101089
389,8,-0.00888824,-0.0145721
389,9,-0.00774384,-0.00915527
390,0,-0.00190735,0.00534058
390,1,-0.00190735,0.0136566
390,2,-0.000839233,0.0151062
390,3,-0.000305176,0.0094223
390,4,-0.00190735,-0.00968933
390,5,-0.00335693,-0.0258636
390,6,-0.0037384,-0.0146484
390,7,-0.0037384,0.0294113
390,8,-0.0037384,0.0727463
390,9,-0.00247955,0.0754166
391,0,-0.000724792,0.0540161
391,1,-0.00461578,0.0296021
391,2,-0.00705719,0.0136185
391,3,-0.00431061,0.0125504
391,4,0.000343323,0.0120163
391,5,0.00213623,-0.000190735
391,6,0.000839233,-0.00782013
391,7,-0.000495911,0.0159454
391,8,-0.00408173,0.0705719
391,9,-0.00179291,0.0985336
392,0,-0.000534058,0.0683975
392,1,-0.00156403,0.0164795
392,2,-0.00125885,-0.0182724
392,3,-0.0025177,-0.0486755
392,4,-0.00442505,-0.0679016
392,5,-0.00629425,-0.0665665
392,6,-0.00553131,-0.0905991
392,7,-0.00331879,-0.126152
392,8,-0.00209808,-0.097847
392,9,-0.00343323,-0.00488281
393,0,-0.00442505,0.0835037
393,1,-0.00160217,0.110664
393,2,0.00377655,0.0909042
393,3,0.0113297,0.0524139
393,4,0.0165939,0.00816345
393,5,0.018425,-0.0173569
393,6,0.0188065,-0.0144196
393,7,0.00770569,-0.00488281
393,8,-0.00507355,0.00137329
393,9,-0.00492096,0.00812531
394,0,-0.00289917,0.0118256
394,1,-0.00778198,-0.0114059
394,2,-0.0121307,-0.0413513
394,3,-0.0119019,-0.0436783
394,4,-0.00286102,-0.0366211
394,5,0.00343323,-0.0296402
394,6,0.00434875,-0.0102997
394,7,-0.000724792,0.00614166
394,8,-0.00114441,0.00312805
394,9,0.00274658,-0.0106049
395,0,0.0050354,-0.018692
395,1,0.00137329,-0.0177765
395,2,-0.00339508,-0.0107956
395,3,-0.00476837,-0.0159073
395,4,-0.00156403,-0.0380707
395,5,-0.00110626,-0.0364304
395,6,-0.00473022,-0.00255585
395,7,-0.00900269,0.0105286
395,8,-0.00591278,-0.0138474
395,9,-0.000114441,-0.0239944
396,0,0.00240326,-0.0174332
396,1,0.00141144,-0.0249481
396,2,0.00297546,-0.0107956
396,3,0.00686646,0.0415802
396,4,0.0106812,0.0702286
396,5,0.0131607,0.043335
396,6,0.0162125,0.00526428
396,7,0.0138474,-0.0160599
396,8,0.00404358,-0.0440979
396,9,-0.00556946,-0.0453949
397,0,-0.00473022,0.000267029
397,1,-0.00259399,0.0455093
397,2,-0.00339508,0.0529861
397,3,-0.00320435,0.0287247
397,4,-0.000534058,-0.0201797
397,5,-0.000190735,-0.0742722
397,6,-0.00278473,-0.0951385
397,7,-0.00801086,-0.0553894
397,8,-0.00865936,0.0335693
397,9,-0.00484467,0.103416
398,0,-0.00171661,0.109749
398,1,0.00190735,0.0761795
398,2,0.0062561,0.0476074
398,3,0.00610352,0.0202179
398,4,0.00457764,-0.0209808
398,5,0.00587463,-0.0573349
398,6,0.00976562,-0.0527573
398,7,0.0108719,0.00400543
398,8,0.00453949,0.0610352
398,9,-0.00202179,0.0553131
399,0,0.001297,0.00476837
399,1,0.00457764,-0.0166702
399,2,-7.62939e-05,0.000114441
399,3,-0.00492096,0.0188828
399,4,-0.00442505,0.0312424
399,5,-0.000343323,0.042305
399,6,0.00602722,0.0397873
399,7,0.00869751,0.00789642
399,8,0.0106049,-0.019455
399,9,0.018692,-0.0270462
400,0,0.0204849,-0.0437927
400,1,0.0148773,-0.0516129
400,2,0.00431061,-0.0157547
400,3,-0.00717163,0.0442123
400,4,-0.0144196,0.0653458
400,5,-0.0120926,0.0250244
400,6,-0.00465393,-0.0273514
400,7,-0.000190735,-0.0497437
400,8,-0.00312805,-0.0701904
400,9,-0.00843048,-0.101585
401,0,-0.0125504,-0.0833511
401,1,-0.0152969,-0.00415802
401,2,-0.020752,0.0501633
401,3,-0.0206757,0.0456619
401,4,-0.0163269,0.0256729
401,5,-0.00640869,0.0134277
401,6,3.8147e-05,-0.000686646
401,7,0.00225067,-0.0382614
401,8,-0.0037384,-0.0568771
401,9,-0.00328064,-0.0177765
402,0,-0.00038147,0.0480652
402,1,0.00324249,0.0705338
402,2,0.00156403,0.0310135
402,3,-0.0037384,-0.00602722
402,4,-0.00465393,0.00171661
402,5,0.00148773,0.029068
402,6,0.00663757,0.0286484
402,7,0.00736237,-0.0160217
402,8,0.00751495,-0.0783157
402,9,0.0088501,-0.101624
403,0,0.00732422,-0.0698471
403,1,0.00537872,-0.0125885
403,2,0.0038147,0.0310516
403,3,0.00782013,0.0437546
403,4,0.0135803,0.0376892
403,5,0.0140762,0.0289917
403,6,0.0094223,0.0152969
403,7,-0.00114441,-0.0131607
403,8,-0.0125885,-0.0348282
403,9,-0.0131607,-0.023613
404,0,-0.00442505,0.0172043
404,1,0.0110626,0.0450134
404,2,0.0159454,0.0482941
404,3,0.010643,0.0445557
404,4,0.00038147,0.0289917
404,5,-0.00915527,0.00221252
404,6,-0.00732422,-0.0157928
404,7,-0.00442505,-0.0170135
404,8,-0.00808716,-0.00415802
404,9,-0.0134659,0.0152206
405,0,-0.0124359,0.0374603
405,1,-0.00808716,0.0653839
405,2,-0.00572205,0.0776672
405,3,-0.00492096,0.0434113
405,4,-0.00434875,-0.0246811
405,5,-0.00225067,-0.047226
405,6,0.000419617,-0.0267029
405,7,0.00293732,-0.0421524
405,8,0.00213623,-0.0788498
405,9,0.00175476,-0.0899506
406,0,0.00312805,-0.0927353
406,1,0.00125885,-0.0956726
406,2,-0.00118256,-0.0468826
406,3,-0.00152588,0.0544739
406,4,0.0056839,0.121727
406,5,0.0152206,0.108337
406,6,0.0197983,0.0600815
406,7,0.0177383,0.018692
406,8,0.0148392,-0.0087738
406,9,0.0128555,-0.0234985
407,0,0.0125504,-0.0228882
407,1,0.01194,-0.00465393
407,2,0.00980377,0.015564
407,3,0.00850677,0.0113678
407,4,0.0056076,0.00526428
407,5,0.000228882,0.0122452
407,6,-0.00335693,0.00141144
407,7,-0.00282288,-0.0191116
407,8,-0.00846863,-0.0261307
407,9,-0.0100708,-0.0354385
408,0,-0.00923157,-0.0371552
408,1,-0.010376,-0.0178146
408,2,-0.00934601,0.0217056
408,3,-0.00888824,0.0551605
408,4,-0.00659943,0.0717926
408,5,-0.00450134,0.0531387
408,6,-0.00499725,0.000724792
408,7,-0.00434875,-0.074234
408,8,0.00038147,-0.118446
408,9,0.00522614,-0.0834274
409,0,0.00610352,-0.0180817
409,1,0.0019455,0.0143051
409,2,-0.00354767,0.00228882
409,3,-0.00396729,-0.0194931
409,4,-0.00156403,-0.0184631
409,5,0.00244141,-0.00858307
409,6,0.0063324,-0.0160217
409,7,0.00205994,-0.0193024
409,8,-0.00236511,0.00354767
409,9,-0.00408173,0.0203705
410,0,3.8147e-05,0.0151825
410,1,0.00164032,0.032692
410,2,0.0043869,0.0590515
410,3,0.00572205,0.0511932
410,4,0.00679016,0.0248337
410,5,0.0113297,0.00423431
410,6,0.0122833,-0.00244141
410,7,0.0107574,0.00038147
410,8,0.00854492,-0.0116348
410,9,0.00705719,-0.030899
411,0,0.00606537,-0.0167465
411,1,-0.00358582,0.0230789
411,2,-0.0125885,0.0507736
411,3,-0.0141907,0.0398636
411,4,-0.00957489,-0.00102997
411,5,-0.00732422,-0.0094223
411,6,-0.00862122,0.0310516
411,7,-0.0102997,0.0568008
411,8,-0.0136948,0.0445175
411,9,-0.0144196,0.0209808
412,0,-0.00934601,0.00514984
412,1,-0.00396729,0.00225067
412,2,-0.0025177,0.00480652
412,3,-0.00293732,0.00411987
412,4,-0.00545502,0.00473022
412,5,-0.00270844,0.00846863
412,6,0.000343323,0.00717163
412,7,0.0031662,-0.00415802
412,8,0.000991821,-0.0227356
412,9,-0.00572205,-0.032196
413,0,-0.00709534,-0.017395
413,1,-0.00728607,0.0173187
413,2,-0.00938416,0.0433731
413,3,-0.0075531,0.0403595
413,4,-0.00255585,0.0170898
413,5,0.00038147,0.00358582
413,6,-0.00217438,0.0101852
413,7,-0.00347137,0.0163651
413,8,-0.00278473,-0.00270844
413,9,0.00171661,-0.0531006
414,0,0.0082016,-0.0849533
414,1,0.00843048,-0.0626755
414,2,0.00431061,-0.0301743
414,3,0.000915527,-0.0311279
414,4,0.00221252,-0.0615692
414,5,0.00415802,-0.0818253
414,6,0.00450134,-0.046463
414,7,0.00713348,0.0279236
414,8,0.0143433,0.0736618
